Sample_num,Task_number,EMG1,EMG2,EMG3,EMG4,EMG5,EMG6,EMG7,EMG8,Timestamp,Video_timestamp,Angle_sample0,0,321766,303731,437060,195865,244071,323144,-60394,-411407,1636025658.7384558,1636025658.781524,01,0,321796,303723,437055,195851,244048,323131,-60414,-411422,1636025658.738458,1636025658.781524,02,0,321798,303729,437044,195843,244033,323132,-60429,-411422,1636025658.7425768,1636025658.781524,03,0,321812,303755,437052,195844,244048,323167,-60421,-411409,1636025658.7425787,1636025658.781524,04,0,321818,303778,437052,195839,244037,323162,-60440,-411434,1636025658.7465954,1636025658.781524,05,0,321815,303789,437057,195859,244031,323154,-60417,-411427,1636025658.746598,1636025658.781524,06,0,321834,303785,437076,195882,244037,323147,-60427,-411414,1636025658.7519636,1636025658.781524,07,0,321856,303783,437068,195890,244048,323169,-60432,-411420,1636025658.7519667,1636025658.781524,08,0,321898,303811,437087,195929,244077,323218,-60387,-411378,1636025658.7544134,1636025658.781524,09,0,321924,303853,437119,195974,244100,323231,-60385,-411392,1636025658.754416,1636025658.781524,010,0,321914,303836,437092,195955,244074,323219,-60397,-411404,1636025659,1636025658.781524,011,0,321960,303883,437153,195997,244119,323288,-60405,-411415,1636025658.7594132,1636025658.781524,012,0,321973,303904,437157,195991,244123,323314,-60396,-411404,1636025658.7626617,1636025658.781524,013,0,321977,303919,437161,195988,244107,323328,-60374,-411405,1636025658.7626643,1636025658.781524,014,0,321989,303951,437178,196021,244112,323371,-60339,-411377,1636025658.7678688,1636025658.781524,015,0,322003,303988,437207,196044,244125,323389,-60331,-411366,1636025658.7678747,1636025658.781524,016,0,322002,303959,437180,196034,244103,323401,-60319,-411384,1636025658.770285,1636025658.781524,017,0,322000,303923,437131,196028,244056,323402,-60341,-411394,1636025658.770286,1636025658.781524,018,0,322105,304049,437266,196116,244086,323431,-60345,-411382,1636025658.7742577,1636025658.781524,019,0,322119,304048,437283,196123,244093,323433,-60324,-411377,1636025658.7742603,1636025658.781524,020,0,322095,304023,437249,196109,244109,323439,-60323,-411395,1636025658.7787476,1636025658.781524,021,0,322100,304065,437238,196126,244126,323446,-60326,-411416,1636025658.7787497,1636025658.781524,022,0,322101,304100,437251,196160,244164,323472,-60323,-411406,1636025658.7827003,1636025658.781524,023,0,322045,304111,437248,196151,244152,323473,-60309,-411399,1636025658.7827027,1636025658.781524,024,0,322056,304138,437240,196161,244106,323448,-60322,-411429,1636025658.7878356,1636025658.935359,125,0,322146,304288,437364,196275,244203,323548,-60307,-411474,1636025658.7902617,1636025658.935359,126,0,322127,304268,437331,196216,244168,323543,-60299,-411462,1636025658.790264,1636025658.935359,127,0,322129,304249,437316,196211,244177,323552,-60280,-411433,1636025658.794324,1636025658.935359,128,0,322138,304241,437294,196217,244158,323549,-60297,-411446,1636025658.7943268,1636025658.935359,129,0,322141,304271,437306,196231,244142,323578,-60285,-411437,1636025658.7982686,1636025658.935359,130,0,322142,304262,437300,196223,244124,323583,-60272,-411420,1636025658.7982717,1636025658.935359,131,0,322129,304238,437282,196204,244102,323568,-60275,-411416,1636025658.803408,1636025658.935359,132,0,322139,304262,437302,196224,244125,323596,-60247,-411399,1636025659,1636025658.935359,133,0,322150,304280,437313,196246,244126,323601,-60236,-411396,1636025658.806682,1636025658.935359,134,0,322170,304272,437313,196223,244106,323609,-60232,-411389,1636025658.8066845,1636025658.935359,135,0,322204,304281,437327,196228,244105,323613,-60251,-411398,1636025658.811722,1636025658.935359,136,0,322228,304313,437383,196257,244104,323619,-60254,-411384,1636025658.811742,1636025658.935359,137,0,322289,304351,437449,196294,244127,323651,-60227,-411345,1636025658.8142812,1636025658.935359,138,0,322281,304361,437473,196316,244119,323664,-60219,-411336,1636025658.8142824,1636025658.935359,139,0,322251,304333,437496,196324,244107,323675,-60236,-411338,1636025658.8183472,1636025658.935359,140,0,322247,304339,437518,196343,244127,323724,-60217,-411337,1636025658.8183525,1636025658.935359,141,0,322236,304341,437526,196324,244110,323714,-60226,-411353,1636025658.8223178,1636025658.935359,142,0,322254,304365,437523,196318,244107,323705,-60236,-411350,1636025658.8223207,1636025658.935359,143,0,322264,304352,437512,196323,244124,323708,-60235,-411339,1636025658.8305588,1636025658.935359,144,0,322267,304368,437541,196344,244145,323727,-60217,-411340,1636025658.8305624,1636025658.935359,145,0,322253,304399,437573,196359,244148,323724,-60222,-411347,1636025658.830578,1636025658.935359,146,0,322258,304408,437596,196355,244151,323740,-60187,-411341,1636025658.8305783,1636025658.935359,147,0,322269,304436,437589,196344,244152,323748,-60197,-411350,1636025658.8341472,1636025658.935359,148,0,322323,304524,437654,196405,244194,323761,-60211,-411346,1636025658.8341503,1636025658.935359,149,0,322346,304527,437683,196390,244203,323771,-60217,-411342,1636025658.8386965,1636025658.935359,150,0,322335,304486,437674,196374,244193,323757,-60220,-411365,1636025658.8386984,1636025658.935359,151,0,322336,304508,437713,196406,244218,323773,-60200,-411358,1636025658.8423846,1636025658.935359,152,0,322381,304524,437724,196417,244213,323792,-60179,-411322,1636025658.8423877,1636025658.935359,153,0,322396,304529,437708,196404,244200,323819,-60178,-411338,1636025658.8467124,1636025658.935359,154,0,322401,304583,437779,196449,244228,323837,-60262,-411395,1636025658.846714,1636025658.935359,155,0,322443,304605,437801,196454,244222,323817,-60295,-411372,1636025658.853684,1636025658.935359,156,0,322483,304596,437776,196433,244216,323825,-60158,-411322,1636025658.8536875,1636025658.935359,157,0,322577,304757,437924,196588,244379,323987,-60019,-411285,1636025658.8543196,1636025658.935359,158,0,322535,304721,437913,196547,244347,323955,-60081,-411293,1636025658.8543217,1636025658.935359,159,0,322512,304713,437918,196541,244308,323934,-60124,-411311,1636025658.8583546,1636025658.935359,160,0,322523,304749,437949,196558,244294,323947,-60119,-411320,1636025658.8583572,1636025658.935359,161,0,322512,304788,437975,196578,244320,323966,-60149,-411329,1636025659,1636025658.935359,162,0,322542,304815,437997,196601,244346,323964,-60176,-411336,1636025658.862502,1636025658.935359,163,0,322537,304798,437943,196523,244294,323919,-60215,-411365,1636025658.9189084,1636025658.935359,164,0,322550,304810,437953,196521,244299,323948,-60201,-411359,1636025658.9189136,1636025658.935359,165,0,322544,304814,437962,196533,244282,323941,-60227,-411393,1636025658.918936,1636025658.935359,166,0,322573,304843,437998,196541,244266,323969,-60219,-411402,1636025658.9189365,1636025658.935359,167,0,322575,304861,438010,196527,244269,323995,-60187,-411354,1636025658.9189394,1636025658.935359,168,0,322573,304871,438007,196505,244244,323975,-60201,-411366,1636025658.9189398,1636025658.935359,169,0,322633,304925,438066,196541,244275,323991,-60183,-411361,1636025658.9189427,1636025658.935359,170,0,322638,304940,438063,196529,244271,324000,-60181,-411369,1636025658.918943,1636025658.935359,171,0,322638,305009,438116,196579,244326,324025,-60166,-411392,1636025658.9189456,1636025658.935359,172,0,322630,305056,438135,196596,244344,324043,-60161,-411380,1636025658.918946,1636025658.935359,173,0,322629,305088,438139,196589,244351,324026,-60131,-411349,1636025658.9189484,1636025658.935359,174,0,322604,305079,438145,196574,244364,324011,-60134,-411347,1636025658.9189487,1636025658.935359,175,0,322604,305068,438159,196567,244382,324008,-60146,-411344,1636025658.9189513,1636025658.935359,176,0,322624,305068,438188,196589,244407,324031,-60117,-411336,1636025658.9189515,1636025658.935359,177,0,322657,305090,438226,196622,244417,324066,-60088,-411307,1636025658.918954,1636025658.935359,178,0,322653,305103,438233,196637,244408,324079,-60074,-411300,1636025658.9189544,1636025658.935359,179,0,322611,305065,438201,196612,244371,324049,-60096,-411321,1636025658.9189575,1636025658.935359,180,0,322597,305082,438211,196629,244391,324050,-60067,-411278,1636025658.9189577,1636025658.935359,181,0,322617,305146,438283,196670,244407,324039,-60070,-411236,1636025659,1636025658.935359,182,0,322598,305119,438279,196638,244398,324048,-60059,-411218,1636025658.9189606,1636025658.935359,183,0,322597,305121,438298,196656,244431,324104,-60069,-411314,1636025658.918963,1636025658.935359,184,0,322682,305229,438413,196770,244519,324188,-60074,-411339,1636025658.9189632,1636025658.935359,185,0,322661,305214,438408,196725,244504,324151,-60087,-411314,1636025658.9189658,1636025658.935359,186,0,322676,305202,438394,196706,244500,324169,-60096,-411329,1636025658.918966,1636025658.935359,187,0,322709,305251,438413,196720,244519,324204,-60072,-411312,1636025658.9189687,1636025658.935359,188,0,322669,305238,438394,196701,244515,324206,-60050,-411307,1636025658.918969,1636025658.935359,189,0,322682,305226,438392,196699,244523,324226,-60044,-411314,1636025658.9189713,1636025658.935359,190,0,322703,305246,438409,196716,244548,324258,-60043,-411320,1636025658.918972,1636025658.935359,191,0,322728,305276,438432,196755,244596,324303,-60032,-411299,1636025658.9233863,1636025658.935359,192,0,322704,305281,438439,196776,244634,324291,-60062,-411329,1636025658.9233916,1636025658.935359,193,0,322670,305242,438401,196736,244618,324254,-60070,-411337,1636025658.9265363,1636025658.935359,194,0,322708,305256,438420,196744,244616,324235,-60098,-411360,1636025658.9265385,1636025658.935359,195,0,322721,305259,438414,196756,244646,324256,-60074,-411338,1636025658.932352,1636025658.935359,196,0,322723,305248,438422,196765,244689,324285,-60065,-411330,1636025658.9323533,1636025658.935359,197,0,322730,305235,438391,196771,244689,324284,-60071,-411357,1636025658.9345877,1636025658.935359,198,0,322738,305252,438389,196793,244713,324268,-60086,-411360,1636025658.9345891,1636025658.935359,199,0,322696,305259,438379,196804,244721,324286,-60087,-411354,1636025658.9410071,1636025658.996434,2100,0,322711,305298,438424,196833,244739,324333,-60069,-411342,1636025658.9410095,1636025658.996434,2101,0,322718,305306,438429,196832,244741,324348,-60077,-411332,1636025658.943053,1636025658.996434,2102,0,322703,305328,438441,196859,244748,324359,-60081,-411326,1636025658.943061,1636025658.996434,2103,0,322710,305386,438474,196891,244776,324386,-60068,-411318,1636025658.9463532,1636025658.996434,2104,0,322711,305364,438464,196906,244779,324385,-60066,-411347,1636025658.946356,1636025658.996434,2105,0,322679,305323,438440,196901,244779,324354,-60091,-411381,1636025658.9563155,1636025658.996434,2106,0,322668,305349,438459,196924,244804,324370,-60083,-411368,1636025658.9563177,1636025658.996434,2107,0,322703,305398,438509,196969,244849,324423,-60059,-411332,1636025658.9563313,1636025658.996434,2108,0,322669,305381,438505,196954,244863,324424,-60072,-411342,1636025658.956332,1636025658.996434,2109,0,322625,305370,438503,196958,244851,324425,-60085,-411337,1636025658.9590716,1636025658.996434,2110,0,322591,305337,438483,196950,244824,324401,-60091,-411349,1636025658.959074,1636025658.996434,2111,0,322606,305347,438473,196946,244842,324409,-60092,-411366,1636025658.9626572,1636025658.996434,2112,0,322606,305348,438470,196938,244849,324410,-60095,-411388,1636025658.9626594,1636025658.996434,2113,0,322609,305385,438501,196950,244851,324409,-60075,-411380,1636025658.9668276,1636025658.996434,2114,0,322658,305433,438520,196976,244859,324425,-60048,-411389,1636025659,1636025658.996434,2115,0,322667,305454,438505,196992,244848,324433,-60046,-411391,1636025658.970297,1636025658.996434,2116,0,322674,305451,438513,197006,244839,324436,-60037,-411407,1636025658.9702992,1636025658.996434,2117,0,322679,305463,438499,197011,244803,324426,-60018,-411401,1636025658.9761765,1636025658.996434,2118,0,322698,305488,438522,197024,244794,324438,-60016,-411389,1636025658.9761796,1636025658.996434,2119,0,322703,305503,438538,197029,244786,324454,-60007,-411373,1636025658.9786787,1636025658.996434,2120,0,322718,305504,438541,197041,244784,324468,-60004,-411366,1636025658.9786808,1636025658.996434,2121,0,322754,305523,438549,197053,244794,324474,-59982,-411356,1636025658.9836755,1636025658.996434,2122,0,322802,305547,438565,197083,244809,324493,-59951,-411366,1636025658.9836776,1636025658.996434,2123,0,322826,305553,438578,197107,244784,324484,-59939,-411359,1636025658.9906516,1636025658.996434,2124,0,322882,305619,438634,197159,244786,324504,-59918,-411324,1636025658.990668,1636025658.996434,2125,0,322871,305597,438604,197164,244786,324504,-59897,-411309,1636025658.9909859,1636025658.996434,2126,0,322871,305617,438605,197172,244793,324523,-59861,-411284,1636025658.9909873,1636025658.996434,2127,0,322881,305596,438601,197159,244761,324521,-59854,-411322,1636025658.9942453,1636025658.996434,2128,0,322887,305604,438642,197203,244807,324557,-59864,-411389,1636025658.9942472,1636025658.996434,2129,0,322931,305604,438664,197226,244841,324576,-59814,-411316,1636025659.0014932,1636025659.076699,3130,0,322979,305640,438712,197248,244858,324611,-59792,-411301,1636025659.0028317,1636025659.076699,3131,0,322996,305650,438758,197241,244888,324618,-59789,-411324,1636025659.0028331,1636025659.076699,3132,0,322967,305606,438733,197203,244879,324612,-59791,-411338,1636025659.0089536,1636025659.076699,3133,0,322992,305619,438735,197199,244891,324633,-59742,-411285,1636025659.0089557,1636025659.076699,3134,0,322991,305634,438705,197180,244880,324604,-59741,-411272,1636025659.010428,1636025659.076699,3135,0,322949,305559,438612,197102,244847,324584,-59752,-411293,1636025659.0104308,1636025659.076699,3136,0,322990,305656,438746,197251,244964,324656,-59791,-411398,1636025659.0145876,1636025659.076699,3137,0,322996,305674,438771,197260,244988,324645,-59796,-411354,1636025659.0145907,1636025659.076699,3138,0,322964,305584,438662,197169,244934,324604,-59827,-411351,1636025659.0192719,1636025659.076699,3139,0,323042,305675,438756,197266,244991,324659,-59889,-411464,1636025659.0192783,1636025659.076699,3140,0,323071,305707,438764,197299,245019,324693,-59829,-411411,1636025659.022686,1636025659.076699,3141,0,323099,305746,438811,197364,245088,324786,-59638,-411256,1636025659.0226953,1636025659.076699,3142,0,323101,305764,438846,197380,245060,324794,-59677,-411241,1636025659.0267615,1636025659.076699,3143,0,323114,305770,438863,197344,245027,324773,-59712,-411286,1636025659.0267713,1636025659.076699,3144,0,323133,305804,438892,197334,245031,324774,-59728,-411331,1636025659.0305283,1636025659.076699,3145,0,323141,305901,438983,197411,245098,324824,-59697,-411293,1636025659.0305307,1636025659.076699,3146,0,323113,305901,438982,197415,245088,324838,-59701,-411296,1636025659.0344565,1636025659.076699,3147,0,323091,305908,438968,197437,245076,324843,-59706,-411333,1636025659.0344589,1636025659.076699,3148,0,323093,305926,438979,197461,245083,324855,-59692,-411331,1636025659,1636025659.076699,3149,0,323113,305939,439002,197458,245098,324882,-59677,-411324,1636025659.0385225,1636025659.076699,3150,0,323131,305943,439007,197458,245119,324914,-59658,-411309,1636025659.046619,1636025659.076699,3151,0,323127,305960,439023,197466,245101,324936,-59647,-411284,1636025659.0466208,1636025659.076699,3152,0,323094,305956,439020,197433,245074,324932,-59658,-411294,1636025659.0466332,1636025659.076699,3153,0,323150,306036,439089,197484,245124,324971,-59619,-411249,1636025659.0466337,1636025659.076699,3154,0,323175,306044,439098,197473,245146,324989,-59614,-411238,1636025659.051566,1636025659.076699,3155,0,323154,306003,439069,197434,245113,324978,-59610,-411252,1636025659.0515685,1636025659.076699,3156,0,323139,306012,439054,197449,245091,324965,-59624,-411266,1636025659.056765,1636025659.076699,3157,0,323175,306051,439093,197485,245109,324995,-59606,-411244,1636025659.056775,1636025659.076699,3158,0,323137,305991,439062,197417,245053,324981,-59646,-411283,1636025659.076202,1636025659.076699,3159,0,323123,306004,439084,197411,245029,324988,-59662,-411319,1636025659.0762239,1636025659.076699,3160,0,323121,306029,439089,197452,245043,325019,-59636,-411301,1636025659.0762749,1636025659.076699,3161,0,323101,306051,439097,197468,245053,325033,-59626,-411282,1636025659.076276,1636025659.076699,3162,0,323138,306135,439175,197533,245082,325061,-59603,-411252,1636025659.0762844,1636025659.076699,3163,0,323166,306175,439207,197586,245108,325094,-59595,-411222,1636025659.0762851,1636025659.076699,3164,0,323170,306183,439207,197593,245106,325097,-59593,-411227,1636025659.0762892,1636025659.076699,3165,0,323164,306181,439204,197583,245116,325094,-59592,-411234,1636025659.0762897,1636025659.076699,3166,0,323157,306182,439208,197571,245118,325089,-59601,-411247,1636025659.0762935,1636025659.076699,3167,0,323148,306205,439221,197584,245123,325089,-59599,-411248,1636025659.076294,1636025659.076699,3168,0,323144,306226,439232,197611,245148,325096,-59590,-411246,1636025659.0810268,1636025659.076699,3169,0,323175,306259,439257,197651,245179,325140,-59550,-411237,1636025659.0810316,1636025659.076699,3170,0,323175,306259,439257,197651,245179,325140,-59550,-411237,1636025659.0810316,1636025659.150986,4171,0,323178,306250,439263,197658,245178,325144,-59550,-411269,1636025659.0853329,1636025659.150986,4172,0,323149,306226,439249,197641,245159,325112,-59569,-411301,1636025659.0853384,1636025659.150986,4173,0,323159,306243,439257,197666,245169,325134,-59557,-411284,1636025659.088138,1636025659.150986,4174,0,323226,306323,439312,197718,245199,325169,-59554,-411251,1636025659.0881426,1636025659.150986,4175,0,323268,306359,439351,197735,245219,325174,-59562,-411245,1636025659.090556,1636025659.150986,4176,0,323209,306299,439298,197714,245188,325169,-59581,-411264,1636025659.0905633,1636025659.150986,4177,0,323214,306288,439314,197765,245197,325178,-59588,-411240,1636025659.0944462,1636025659.150986,4178,0,323241,306315,439347,197795,245211,325191,-59562,-411234,1636025659.0944505,1636025659.150986,4179,0,323251,306308,439326,197797,245217,325224,-59537,-411234,1636025659.1013043,1636025659.150986,4180,0,323256,306319,439345,197808,245224,325248,-59506,-411226,1636025659.101307,1636025659.150986,4181,0,323281,306349,439363,197814,245223,325246,-59490,-411207,1636025659.103631,1636025659.150986,4182,0,323307,306403,439374,197831,245238,325267,-59505,-411236,1636025659.1036332,1636025659.150986,4183,0,323341,306433,439392,197868,245235,325263,-59511,-411252,1636025659.1090877,1636025659.150986,4184,0,323353,306433,439378,197847,245230,325263,-59507,-411267,1636025659.1090913,1636025659.150986,4185,0,323322,306424,439346,197824,245248,325270,-59551,-411321,1636025659.1102352,1636025659.150986,4186,0,323350,306495,439417,197895,245298,325288,-59554,-411313,1636025659.1102376,1636025659.150986,4187,0,323382,306544,439464,197939,245337,325301,-59521,-411288,1636025659.1159403,1636025659.150986,4188,0,323388,306553,439463,197938,245359,325301,-59506,-411283,1636025659.1159425,1636025659.150986,4189,0,323429,306597,439493,197961,245399,325329,-59475,-411240,1636025659.1197295,1636025659.150986,4190,0,323396,306586,439438,197940,245404,325304,-59486,-411196,1636025659.1197321,1636025659.150986,4191,0,323424,306613,439443,197960,245428,325313,-59483,-411238,1636025659.1227756,1636025659.150986,4192,0,323424,306634,439486,198005,245454,325323,-59462,-411257,1636025659.1227863,1636025659.150986,4193,0,323389,306601,439458,197980,245454,325303,-59484,-411275,1636025659.1265445,1636025659.150986,4194,0,323394,306614,439465,197975,245448,325296,-59502,-411302,1636025659.1265461,1636025659.150986,4195,0,323486,306728,439573,198062,245503,325342,-59465,-411246,1636025659.130518,1636025659.150986,4196,0,323511,306739,439615,198088,245519,325349,-59436,-411206,1636025659,1636025659.150986,4197,0,323443,306686,439576,198052,245460,325319,-59449,-411244,1636025659.1343803,1636025659.150986,4198,0,323426,306669,439560,198029,245419,325308,-59456,-411248,1636025659.134383,1636025659.150986,4199,0,323440,306653,439561,198026,245394,325307,-59437,-411222,1636025659.138501,1636025659.150986,4200,0,323519,306728,439640,198109,245440,325347,-59438,-411291,1636025659.138506,1636025659.150986,4201,0,323593,306782,439680,198149,245478,325370,-59441,-411316,1636025659.1447756,1636025659.150986,4202,0,323608,306798,439698,198153,245476,325371,-59431,-411305,1636025659.1447785,1636025659.150986,4203,0,323625,306792,439708,198153,245468,325359,-59434,-411285,1636025659.1506577,1636025659.150986,4204,0,323611,306781,439692,198141,245464,325323,-59416,-411265,1636025659.1506588,1636025659.150986,4205,0,323625,306766,439644,198104,245460,325333,-59382,-411261,1636025659.1506655,1636025659.150986,4206,0,323722,306916,439756,198217,245566,325418,-59355,-411307,1636025659.1506662,1636025659.150986,4207,0,323797,306994,439739,198218,245539,325428,-59319,-411264,1636025659.159417,1636025659.229298,5208,0,323791,306974,439736,198224,245540,325441,-59317,-411251,1636025659.1594183,1636025659.229298,5209,0,323803,306974,439731,198248,245538,325457,-59292,-411251,1636025659,1636025659.229298,5210,0,323784,306974,439721,198248,245512,325448,-59317,-411260,1636025659.1623814,1636025659.229298,5211,0,323759,306960,439718,198269,245534,325463,-59309,-411251,1636025659.1662846,1636025659.229298,5212,0,323772,306972,439746,198308,245563,325473,-59281,-411232,1636025659.1662867,1636025659.229298,5213,0,323811,307011,439798,198329,245598,325484,-59281,-411207,1636025659.1744292,1636025659.229298,5214,0,323831,307013,439820,198355,245654,325534,-59262,-411191,1636025659.1744332,1636025659.229298,5215,0,323837,306990,439818,198366,245696,325554,-59236,-411175,1636025659.1774042,1636025659.229298,5216,0,323851,307039,439886,198410,245713,325544,-59246,-411167,1636025659.1774068,1636025659.229298,5217,0,323828,307060,439895,198410,245724,325531,-59289,-411251,1636025659.1794472,1636025659.229298,5218,0,323822,307038,439861,198386,245714,325523,-59272,-411227,1636025659.179449,1636025659.229298,5219,0,323817,307043,439841,198387,245718,325514,-59275,-411190,1636025659.1856244,1636025659.229298,5220,0,323841,307062,439841,198409,245743,325533,-59261,-411163,1636025659.1856277,1636025659.229298,5221,0,323891,307076,439878,198443,245765,325566,-59231,-411154,1636025659.1872823,1636025659.229298,5222,0,323904,307064,439883,198426,245758,325556,-59221,-411156,1636025659.1872852,1636025659.229298,5223,0,323932,307079,439914,198424,245763,325582,-59191,-411131,1636025659.192208,1636025659.229298,5224,0,323929,307066,439925,198404,245736,325579,-59211,-411166,1636025659.1922102,1636025659.229298,5225,0,323943,307068,439955,198433,245748,325604,-59179,-411158,1636025659.1945734,1636025659.229298,5226,0,323937,307054,439942,198422,245766,325607,-59171,-411176,1636025659.1945755,1636025659.229298,5227,0,323924,307052,439944,198409,245766,325602,-59198,-411198,1636025659.2010229,1636025659.229298,5228,0,323940,307069,439974,198406,245774,325646,-59201,-411192,1636025659.2010252,1636025659.229298,5229,0,323961,307075,439990,198411,245786,325674,-59185,-411175,1636025659.2037845,1636025659.229298,5230,0,324013,307118,440045,198450,245823,325691,-59168,-411159,1636025659.2037864,1636025659.229298,5231,0,324020,307128,440032,198434,245815,325678,-59177,-411164,1636025659.2081945,1636025659.229298,5232,0,324031,307136,440042,198428,245844,325688,-59161,-411162,1636025659.2081976,1636025659.229298,5233,0,324014,307138,440044,198429,245863,325688,-59156,-411161,1636025659,1636025659.229298,5234,0,323974,307092,440005,198403,245849,325674,-59182,-411165,1636025659.212463,1636025659.229298,5235,0,323987,307129,440052,198471,245899,325702,-59186,-411162,1636025659.217213,1636025659.229298,5236,0,324004,307159,440073,198499,245934,325708,-59161,-411142,1636025659.2172172,1636025659.229298,5237,0,324036,307206,440122,198537,245969,325726,-59133,-411125,1636025659.2292583,1636025659.229298,5238,0,324056,307186,440124,198519,245938,325743,-59132,-411109,1636025659.229261,1636025659.229298,5239,0,324104,307194,440142,198547,245933,325761,-59133,-411109,1636025659.2292697,1636025659.229298,5240,0,324145,307226,440180,198573,245937,325799,-59127,-411080,1636025659.2292705,1636025659.229298,5241,0,324134,307215,440194,198540,245944,325806,-59144,-411104,1636025659.229273,1636025659.229298,5242,0,324151,307232,440234,198550,245976,325837,-59116,-411121,1636025659.2292736,1636025659.229298,5243,0,324178,307256,440261,198574,245989,325856,-59092,-411114,1636025659.230878,1636025659.229298,5244,0,324181,307240,440268,198585,245983,325868,-59096,-411118,1636025659.2308805,1636025659.229298,5245,0,324153,307206,440221,198574,245941,325867,-59121,-411138,1636025659.242138,1636025659,6246,0,324170,307224,440244,198580,245924,325875,-59146,-411162,1636025659.242144,1636025659,6247,0,324209,307261,440286,198604,245931,325903,-59145,-411154,1636025659.2421644,1636025659,6248,0,324193,307235,440271,198603,245914,325909,-59146,-411187,1636025659.242165,1636025659,6249,0,324177,307232,440241,198594,245884,325909,-59166,-411201,1636025659.242524,1636025659,6250,0,324180,307224,440243,198598,245876,325911,-59183,-411190,1636025659.2425287,1636025659,6251,0,324185,307235,440254,198635,245883,325926,-59137,-411179,1636025659.2499084,1636025659,6252,0,324191,307251,440273,198649,245882,325932,-59111,-411167,1636025659.2499108,1636025659,6253,0,324181,307239,440243,198637,245877,325911,-59116,-411172,1636025659.2518487,1636025659,6254,0,324204,307254,440271,198646,245894,325919,-59137,-411181,1636025659.2518516,1636025659,6255,0,324201,307268,440291,198656,245903,325963,-59145,-411193,1636025659.256201,1636025659,6256,0,324187,307245,440264,198641,245884,325973,-59156,-411206,1636025659.256203,1636025659,6257,0,324213,307269,440296,198684,245915,326004,-59133,-411171,1636025659.2594275,1636025659,6258,0,324238,307278,440319,198708,245933,326012,-59134,-411161,1636025659.2594297,1636025659,6259,0,324228,307269,440298,198703,245925,326003,-59127,-411164,1636025659.262754,1636025659,6260,0,324222,307263,440323,198716,245932,326011,-59104,-411171,1636025659.2627566,1636025659,6261,0,324194,307238,440333,198716,245936,326009,-59097,-411184,1636025659.268517,1636025659,6262,0,324159,307247,440332,198679,245966,325999,-59102,-411203,1636025659,1636025659,6263,0,324162,307253,440351,198683,246006,326027,-59071,-411169,1636025659.2719483,1636025659,6264,0,324168,307258,440371,198711,246012,326026,-59031,-411136,1636025659.2719505,1636025659,6265,0,324178,307293,440394,198739,246037,326039,-59018,-411125,1636025659.2749593,1636025659,6266,0,324162,307271,440373,198729,246042,326032,-59039,-411142,1636025659.2749634,1636025659,6267,0,324148,307258,440356,198714,246035,326028,-59040,-411124,1636025659.2784588,1636025659,6268,0,324136,307250,440343,198723,246038,326049,-59019,-411107,1636025659.2784617,1636025659,6269,0,324116,307218,440344,198705,246024,326047,-59034,-411105,1636025659.2822995,1636025659,6270,0,324160,307278,440396,198744,246051,326077,-59046,-411122,1636025659.2823007,1636025659,6271,0,324215,307378,440476,198836,246117,326144,-59065,-411179,1636025659.2924821,1636025659,6272,0,324201,307360,440463,198814,246118,326143,-59048,-411141,1636025659.292487,1636025659,6273,0,324201,307358,440457,198779,246110,326124,-59054,-411135,1636025659.2925067,1636025659,6274,0,324217,307365,440466,198775,246141,326107,-59039,-411137,1636025659.2925074,1636025659,6275,0,324254,307340,440423,198768,246142,326119,-58964,-411117,1636025659.3072596,1636025659.371735,7276,0,324306,307417,440511,198836,246201,326185,-58989,-411185,1636025659.3072608,1636025659.371735,7277,0,324301,307393,440496,198813,246171,326173,-58983,-411152,1636025659.3072655,1636025659.371735,7278,0,324282,307366,440478,198788,246116,326140,-58985,-411159,1636025659.3072665,1636025659.371735,7279,0,324306,307434,440542,198823,246089,326145,-58996,-411151,1636025659.3072696,1636025659.371735,7280,0,324269,307411,440518,198808,246056,326159,-58982,-411164,1636025659.3072703,1636025659.371735,7281,0,324326,307427,440535,198833,246101,326190,-58963,-411151,1636025659.3122225,1636025659.371735,7282,0,324438,307524,440597,198899,246146,326229,-58959,-411138,1636025659.3122246,1636025659.371735,7283,0,324413,307494,440569,198877,246146,326220,-58962,-411173,1636025659.3148043,1636025659.371735,7284,0,324399,307456,440539,198835,246163,326239,-58956,-411181,1636025659.3148065,1636025659.371735,7285,0,324407,307446,440552,198837,246144,326249,-58968,-411191,1636025659.3183854,1636025659.371735,7286,0,324433,307440,440574,198867,246157,326269,-58944,-411181,1636025659.3183875,1636025659.371735,7287,0,324436,307444,440600,198861,246171,326269,-58951,-411182,1636025659.3237994,1636025659.371735,7288,0,324457,307473,440621,198894,246188,326276,-58934,-411169,1636025659.323811,1636025659.371735,7289,0,324450,307474,440631,198911,246193,326291,-58912,-411152,1636025659,1636025659.371735,7290,0,324439,307450,440616,198929,246213,326301,-58887,-411141,1636025659.3267627,1636025659.371735,7291,0,324448,307441,440606,198938,246244,326319,-58859,-411141,1636025659.3302922,1636025659.371735,7292,0,324479,307473,440618,198957,246256,326314,-58861,-411150,1636025659.3302937,1636025659.371735,7293,0,324503,307496,440633,198983,246298,326329,-58866,-411162,1636025659.3342783,1636025659.371735,7294,0,324498,307502,440649,198990,246316,326324,-58884,-411188,1636025659.3342807,1636025659.371735,7295,0,324501,307513,440655,198981,246316,326316,-58897,-411220,1636025659.338332,1636025659.371735,7296,0,324494,307494,440659,198979,246334,326313,-58892,-411216,1636025659.338336,1636025659.371735,7297,0,324507,307484,440688,198978,246341,326324,-58878,-411216,1636025659.343262,1636025659.371735,7298,0,324501,307475,440674,198951,246346,326316,-58896,-411228,1636025659.3432665,1636025659.371735,7299,0,324524,307475,440682,198934,246362,326324,-58909,-411258,1636025659.346369,1636025659.371735,7300,0,324552,307519,440736,198954,246406,326361,-58886,-411246,1636025659.3463705,1636025659.371735,7301,0,324577,307551,440788,198986,246424,326368,-58875,-411211,1636025659.350508,1636025659.371735,7302,0,324563,307538,440771,198973,246428,326365,-58889,-411213,1636025659.3505087,1636025659.371735,7303,0,324572,307519,440756,198973,246424,326378,-58894,-411212,1636025659.3617837,1636025659.371735,7304,0,324614,307536,440765,198969,246423,326386,-58888,-411222,1636025659.3617868,1636025659.371735,7305,0,324618,307573,440776,198966,246423,326400,-58872,-411236,1636025659.3618157,1636025659.371735,7306,0,324597,307584,440764,198959,246406,326387,-58883,-411252,1636025659.361816,1636025659.371735,7307,0,324586,307576,440754,198961,246421,326401,-58889,-411240,1636025659.3639085,1636025659.371735,7308,0,324597,307558,440753,198961,246431,326408,-58905,-411246,1636025659,1636025659.371735,7309,0,324631,307603,440779,198989,246444,326403,-58917,-411246,1636025659.366528,1636025659.371735,7310,0,324658,307639,440814,199022,246466,326434,-58900,-411241,1636025659.366529,1636025659.371735,7311,0,324616,307611,440789,198985,246457,326439,-58919,-411279,1636025659.370275,1636025659.371735,7312,0,324608,307596,440778,198982,246439,326448,-58941,-411321,1636025659.3702762,1636025659.371735,7313,0,324616,307604,440792,199004,246456,326486,-58933,-411304,1636025659.3757524,1636025659.371735,7314,0,324602,307598,440804,199022,246464,326478,-58935,-411304,1636025659.3757548,1636025659.371735,7315,0,324663,307662,440828,199054,246494,326508,-58954,-411317,1636025659.3822863,1636025659.430005,8316,0,324696,307694,440863,199081,246536,326541,-58934,-411304,1636025659.3822875,1636025659.430005,8317,0,324683,307673,440817,199070,246536,326527,-58946,-411336,1636025659.387701,1636025659.430005,8318,0,324701,307726,440861,199105,246573,326547,-58945,-411330,1636025659.3877046,1636025659.430005,8319,0,324743,307791,440905,199126,246596,326553,-58962,-411298,1636025659.3906808,1636025659.430005,8320,0,324764,307822,440909,199136,246627,326546,-58957,-411257,1636025659.390684,1636025659.430005,8321,0,324738,307765,440856,199088,246621,326525,-58971,-411253,1636025659.3947604,1636025659.430005,8322,0,324731,307769,440839,199058,246605,326533,-58986,-411316,1636025659.3947625,1636025659.430005,8323,0,324815,307891,440944,199158,246694,326591,-58977,-411311,1636025659.3985689,1636025659.430005,8324,0,324821,307888,440968,199177,246709,326601,-58979,-411289,1636025659.398584,1636025659.430005,8325,0,324824,307874,440983,199201,246709,326590,-58987,-411301,1636025659.402494,1636025659.430005,8326,0,324845,307916,440991,199221,246719,326601,-58982,-411287,1636025659.4024956,1636025659.430005,8327,0,324819,307924,440964,199201,246722,326584,-58992,-411307,1636025659.4071293,1636025659.430005,8328,0,324801,307931,440970,199214,246734,326575,-58992,-411302,1636025659.4071321,1636025659.430005,8329,0,324816,307933,440979,199207,246739,326558,-58981,-411284,1636025659.4101856,1636025659.430005,8330,0,324811,307923,440979,199190,246741,326544,-58952,-411274,1636025659.4101875,1636025659.430005,8331,0,324886,308019,441071,199275,246849,326616,-58946,-411345,1636025659.4143407,1636025659.430005,8332,0,324921,308060,441109,199315,246901,326641,-58937,-411316,1636025659.4143424,1636025659.430005,8333,0,324917,308048,441097,199286,246908,326625,-58940,-411297,1636025659.418772,1636025659.430005,8334,0,324947,308084,441117,199282,246916,326634,-58924,-411292,1636025659.4187753,1636025659.430005,8335,0,324947,308093,441096,199235,246886,326606,-58939,-411306,1636025659.422352,1636025659.430005,8336,0,324946,308133,441117,199228,246924,326610,-58932,-411304,1636025659.4223545,1636025659.430005,8337,0,324943,308167,441164,199239,246926,326599,-58928,-411302,1636025659.4262834,1636025659.430005,8338,0,324909,308159,441170,199235,246912,326585,-58923,-411309,1636025659.4262848,1636025659.430005,8339,0,324885,308161,441166,199236,246898,326577,-58923,-411302,1636025659.4302654,1636025659.430005,8340,0,324883,308159,441133,199228,246883,326568,-58944,-411321,1636025659.4302669,1636025659.430005,8341,0,324901,308183,441153,199233,246903,326581,-58932,-411319,1636025659.4342327,1636025659.430005,8342,0,324905,308182,441162,199264,246932,326598,-58924,-411352,1636025659.434235,1636025659.430005,8343,0,324919,308218,441167,199311,246958,326631,-58926,-411357,1636025659.438887,1636025660,9344,0,324933,308243,441162,199334,246956,326631,-58925,-411339,1636025659.4388888,1636025660,9345,0,324932,308247,441159,199351,246948,326634,-58934,-411347,1636025659.4441009,1636025660,9346,0,324969,308260,441169,199391,246946,326651,-58924,-411331,1636025659.4441035,1636025660,9347,0,324977,308271,441174,199403,246962,326664,-58941,-411338,1636025659.448953,1636025660,9348,0,324990,308321,441190,199427,246986,326667,-58932,-411332,1636025659.4489563,1636025660,9349,0,324966,308335,441177,199430,246979,326644,-58939,-411328,1636025659.4503763,1636025660,9350,0,324944,308338,441198,199447,246979,326660,-58917,-411289,1636025659.4503777,1636025660,9351,0,324946,308338,441179,199448,246948,326658,-58894,-411270,1636025659,1636025660,9352,0,325015,308402,441229,199471,246976,326691,-58921,-411327,1636025659.4543731,1636025660,9353,0,325073,308521,441348,199582,247081,326766,-58926,-411372,1636025659.4586005,1636025660,9354,0,325043,308479,441289,199538,247018,326731,-58931,-411347,1636025659.4586024,1636025660,9355,0,325024,308496,441305,199557,247049,326738,-58907,-411349,1636025659.4631383,1636025660,9356,0,325015,308494,441317,199543,247068,326735,-58918,-411367,1636025659.4631405,1636025660,9357,0,325034,308524,441336,199533,247046,326736,-58939,-411362,1636025659.4664667,1636025660,9358,0,325035,308521,441326,199519,247025,326731,-58951,-411369,1636025659.466468,1636025660,9359,0,325059,308543,441347,199540,247035,326738,-58927,-411361,1636025659.470193,1636025660,9360,0,325046,308538,441359,199541,247026,326734,-58924,-411376,1636025659.470194,1636025660,9361,0,325038,308539,441376,199553,247039,326766,-58891,-411386,1636025659.4743247,1636025660,9362,0,325012,308497,441386,199551,247063,326777,-58886,-411395,1636025659.474327,1636025660,9363,0,325048,308519,441427,199573,247109,326788,-58876,-411366,1636025659.4786763,1636025660,9364,0,325079,308553,441469,199613,247127,326784,-58866,-411354,1636025659.4786785,1636025660,9365,0,325111,308603,441544,199688,247166,326833,-58835,-411325,1636025659.4826348,1636025660,9366,0,325094,308566,441548,199659,247178,326841,-58830,-411346,1636025659.4826372,1636025660,9367,0,325080,308526,441530,199631,247203,326831,-58840,-411371,1636025659.4902475,1636025660,9368,0,325106,308573,441561,199659,247233,326849,-58823,-411344,1636025659.490251,1636025660,9369,0,325117,308629,441573,199661,247233,326845,-58842,-411324,1636025659.490362,1636025660,9370,0,325109,308664,441606,199704,247269,326883,-58842,-411351,1636025659.4903724,1636025660,9371,0,325154,308669,441601,199710,247278,326886,-58861,-411363,1636025659.5016448,1636025660,9372,0,325261,308748,441681,199791,247323,326903,-58851,-411316,1636025659.5016472,1636025660,9373,0,325269,308733,441686,199834,247339,326924,-58811,-411307,1636025659.5016608,1636025660,9374,0,325289,308768,441724,199877,247378,326965,-58753,-411276,1636025659.5016613,1636025660,9375,0,325261,308739,441706,199828,247340,326950,-58769,-411281,1636025659.5021918,1636025660,9376,0,325251,308710,441711,199793,247333,326948,-58779,-411296,1636025659.502193,1636025660,9377,0,325247,308699,441698,199781,247318,326946,-58784,-411316,1636025659.507522,1636025660,9378,0,325274,308744,441710,199808,247322,326958,-58786,-411309,1636025659.507527,1636025660,9379,0,325281,308748,441721,199824,247327,326944,-58796,-411334,1636025659.5106533,1636025660,9380,0,325290,308774,441739,199872,247363,326961,-58775,-411327,1636025659.5106564,1636025660,9381,0,325289,308744,441683,199891,247371,326946,-58804,-411352,1636025659.5143156,1636025659.569974,10382,0,325308,308758,441688,199885,247409,326948,-58794,-411352,1636025659.5188973,1636025659.569974,10383,0,325318,308775,441719,199871,247406,326946,-58792,-411361,1636025659.5189028,1636025659.569974,10384,0,325298,308752,441696,199862,247388,326951,-58806,-411373,1636025659.5228152,1636025659.569974,10385,0,325290,308748,441699,199840,247397,326947,-58809,-411367,1636025659.5228193,1636025659.569974,10386,0,325324,308791,441742,199856,247424,326979,-58797,-411335,1636025659.5263665,1636025659.569974,10387,0,325321,308806,441749,199866,247446,327028,-58796,-411319,1636025659.5263684,1636025659.569974,10388,0,325273,308782,441724,199866,247414,327018,-58792,-411326,1636025659.5303752,1636025659.569974,10389,0,325254,308728,441685,199841,247368,326992,-58786,-411301,1636025659.5303783,1636025659.569974,10390,0,325313,308761,441719,199871,247412,327034,-58788,-411352,1636025659.5347419,1636025659.569974,10391,0,325356,308843,441806,199936,247504,327108,-58796,-411423,1636025659.5347452,1636025659.569974,10392,0,325322,308821,441794,199915,247490,327098,-58821,-411397,1636025659.5387833,1636025659.569974,10393,0,325311,308812,441793,199930,247509,327101,-58824,-411407,1636025659.538786,1636025659.569974,10394,0,325355,308846,441834,199948,247523,327124,-58829,-411392,1636025659.5427752,1636025659.569974,10395,0,325386,308895,441898,199986,247552,327148,-58807,-411383,1636025659.5427787,1636025659.569974,10396,0,325398,308922,441921,200007,247575,327158,-58789,-411390,1636025659.546627,1636025659.569974,10397,0,325370,308897,441901,199969,247576,327146,-58805,-411396,1636025659.5466292,1636025659.569974,10398,0,325375,308898,441901,199966,247586,327154,-58792,-411388,1636025659.5535607,1636025659.569974,10399,0,325334,308864,441893,199936,247579,327168,-58804,-411410,1636025659.5535634,1636025659.569974,10400,0,325324,308831,441859,199881,247553,327152,-58829,-411449,1636025659.5656369,1636025659.569974,10401,0,325316,308816,441833,199847,247556,327135,-58852,-411471,1636025659.5656393,1636025659.569974,10402,0,325329,308803,441851,199839,247578,327141,-58849,-411459,1636025659.5656483,1636025659.569974,10403,0,325348,308822,441883,199841,247606,327141,-58844,-411449,1636025659.565649,1636025659.569974,10404,0,325362,308846,441886,199836,247614,327159,-58825,-411434,1636025659.5656517,1636025659.569974,10405,0,325389,308877,441896,199856,247618,327194,-58807,-411447,1636025659.565652,1636025659.569974,10406,0,325478,308973,441991,199951,247662,327270,-58809,-411469,1636025659.5671887,1636025659.569974,10407,0,325454,308949,441930,199899,247593,327234,-58814,-411444,1636025660,1636025659.569974,10408,0,325434,308943,441914,199865,247567,327248,-58809,-411445,1636025659.5701976,1636025659.569974,10409,0,325418,308919,441907,199866,247550,327270,-58796,-411427,1636025659.5702055,1636025659.569974,10410,0,325408,308922,441924,199856,247550,327272,-58825,-411439,1636025659.5741904,1636025659.569974,10411,0,325406,308913,441926,199845,247543,327253,-58852,-411481,1636025659.5741935,1636025659.569974,10412,0,325396,308889,441908,199832,247535,327247,-58837,-411501,1636025659.5782876,1636025659.646294,11413,0,325455,308928,441939,199893,247569,327255,-58817,-411474,1636025659.5782897,1636025659.646294,11414,0,325519,308961,441988,199945,247605,327278,-58801,-411445,1636025659.5824292,1636025659.646294,11415,0,325473,308940,441955,199936,247621,327281,-58784,-411434,1636025659.5824313,1636025659.646294,11416,0,325427,308943,441945,199943,247622,327264,-58777,-411416,1636025659.5874496,1636025659.646294,11417,0,325503,309024,442028,200046,247659,327286,-58751,-411367,1636025659.5874543,1636025659.646294,11418,0,325510,308994,442011,200035,247621,327274,-58744,-411368,1636025659.5905087,1636025659.646294,11419,0,325505,309049,442040,200081,247669,327323,-58744,-411424,1636025659.590515,1636025659.646294,11420,0,325527,309081,442094,200138,247697,327338,-58731,-411402,1636025659.5945632,1636025659.646294,11421,0,325543,309088,442113,200153,247686,327318,-58752,-411439,1636025659.5945652,1636025659.646294,11422,0,325520,309079,442077,200136,247674,327301,-58744,-411449,1636025659.5986335,1636025659.646294,11423,0,325519,309083,442076,200162,247691,327338,-58725,-411423,1636025659.598636,1636025659.646294,11424,0,325522,309064,442079,200161,247684,327340,-58741,-411448,1636025659.602318,1636025659.646294,11425,0,325513,309038,442059,200146,247660,327341,-58762,-411491,1636025660,1636025659.646294,11426,0,325566,309120,442134,200212,247707,327361,-58762,-411467,1636025659.6072667,1636025659.646294,11427,0,325554,309138,442148,200249,247736,327373,-58750,-411459,1636025659.6072683,1636025659.646294,11428,0,325513,309092,442112,200237,247766,327383,-58714,-411470,1636025659.6107256,1636025659.646294,11429,0,325509,309138,442153,200260,247815,327394,-58710,-411453,1636025659.6107347,1636025659.646294,11430,0,325546,309181,442217,200283,247853,327394,-58714,-411428,1636025659.614856,1636025659.646294,11431,0,325516,309142,442173,200238,247831,327388,-58722,-411468,1636025659.6148584,1636025659.646294,11432,0,325519,309145,442176,200256,247848,327373,-58702,-411476,1636025659.6197455,1636025659.646294,11433,0,325540,309137,442177,200268,247873,327381,-58685,-411474,1636025659.6197488,1636025659.646294,11434,0,325553,309135,442187,200276,247906,327403,-58679,-411465,1636025659.6226027,1636025659.646294,11435,0,325589,309164,442233,200291,247914,327433,-58682,-411467,1636025659.6226068,1636025659.646294,11436,0,325631,309201,442244,200303,247911,327433,-58677,-411469,1636025659.627237,1636025659.646294,11437,0,325673,309239,442283,200349,247929,327452,-58665,-411472,1636025659.6272395,1636025659.646294,11438,0,325713,309269,442295,200382,247938,327474,-58638,-411444,1636025659.6306973,1636025659.646294,11439,0,325705,309244,442247,200359,247924,327455,-58631,-411424,1636025659.6306992,1636025659.646294,11440,0,325715,309248,442264,200365,247915,327453,-58662,-411462,1636025659.6343632,1636025659.646294,11441,0,325721,309288,442301,200395,247932,327483,-58632,-411463,1636025659.6343668,1636025659.646294,11442,0,325698,309279,442285,200371,247921,327472,-58636,-411454,1636025659.6381588,1636025659.646294,11443,0,325721,309325,442321,200418,247964,327500,-58624,-411427,1636025659.6381614,1636025659.646294,11444,0,325755,309338,442320,200440,247979,327518,-58601,-411387,1636025659.6455183,1636025659.646294,11445,0,325793,309334,442331,200464,247991,327536,-58619,-411434,1636025659.6455207,1636025659.646294,11446,0,325823,309402,442395,200523,248067,327597,-58619,-411454,1636025659.6467211,1636025659.646294,11447,0,325793,309393,442359,200491,248063,327573,-58605,-411418,1636025659.6467223,1636025659.646294,11448,0,325799,309384,442366,200499,248088,327566,-58599,-411430,1636025659.6501217,1636025659.646294,11449,0,325860,309421,442415,200554,248117,327626,-58590,-411411,1636025659.650124,1636025659.646294,11450,0,325806,309401,442443,200548,248097,327624,-58621,-411423,1636025659.6597304,1636025659.710553,12451,0,325831,309440,442479,200575,248119,327667,-58597,-411403,1636025659.6597424,1636025659.710553,12452,0,325829,309426,442486,200566,248138,327683,-58610,-411441,1636025659.6597433,1636025659.710553,12453,0,325864,309450,442541,200605,248149,327673,-58606,-411439,1636025659.6627557,1636025659.710553,12454,0,325849,309462,442544,200619,248149,327664,-58620,-411436,1636025659.6627579,1636025659.710553,12455,0,325830,309459,442530,200623,248152,327660,-58627,-411442,1636025659.666668,1636025659.710553,12456,0,325884,309497,442559,200659,248146,327686,-58617,-411422,1636025659.6666703,1636025659.710553,12457,0,325890,309490,442561,200688,248112,327708,-58597,-411402,1636025659.6728225,1636025659.710553,12458,0,325916,309521,442569,200706,248121,327739,-58554,-411367,1636025659.6728249,1636025659.710553,12459,0,325929,309478,442520,200659,248073,327724,-58536,-411370,1636025659.674382,1636025659.710553,12460,0,325971,309540,442604,200723,248153,327791,-58545,-411468,1636025659.6743848,1636025659.710553,12461,0,325992,309546,442636,200746,248183,327796,-58537,-411427,1636025659.679794,1636025659.710553,12462,0,326012,309529,442631,200730,248161,327794,-58540,-411414,1636025659.6797967,1636025659.710553,12463,0,325988,309494,442619,200710,248132,327800,-58560,-411424,1636025659.6826174,1636025659.710553,12464,0,326050,309549,442690,200759,248190,327846,-58536,-411397,1636025659.6826196,1636025659.710553,12465,0,326083,309558,442697,200754,248236,327834,-58545,-411389,1636025659.6902857,1636025659.710553,12466,0,326077,309538,442681,200754,248238,327839,-58549,-411405,1636025659.690288,1636025659.710553,12467,0,326079,309543,442681,200756,248243,327873,-58547,-411389,1636025659.690298,1636025659.710553,12468,0,326100,309569,442716,200768,248260,327903,-58530,-411371,1636025659.6902983,1636025659.710553,12469,0,326104,309613,442748,200764,248283,327930,-58522,-411350,1636025659.6942587,1636025659.710553,12470,0,326059,309620,442698,200746,248272,327913,-58544,-411371,1636025659.6942613,1636025659.710553,12471,0,326073,309659,442716,200765,248308,327935,-58507,-411351,1636025659.6983376,1636025659.710553,12472,0,326111,309711,442761,200789,248353,327941,-58487,-411327,1636025659.6983416,1636025659.710553,12473,0,326153,309766,442801,200838,248406,327959,-58486,-411320,1636025659.702175,1636025659.710553,12474,0,326130,309749,442768,200850,248401,327978,-58461,-411324,1636025659.7021763,1636025659.710553,12475,0,326114,309751,442758,200847,248401,327972,-58436,-411296,1636025659.7061465,1636025659.710553,12476,0,326158,309808,442814,200878,248419,327984,-58438,-411281,1636025659.7061484,1636025659.710553,12477,0,326184,309868,442858,200898,248387,327973,-58459,-411306,1636025659.7102141,1636025659.710553,12478,0,326148,309853,442825,200875,248327,327950,-58456,-411344,1636025659.7102163,1636025659.710553,12479,0,326138,309844,442825,200862,248323,327954,-58440,-411333,1636025659.7142012,1636025659.710553,12480,0,326114,309804,442777,200814,248286,327939,-58462,-411337,1636025659.7142043,1636025659.710553,12481,0,326209,309913,442904,200945,248304,327998,-58404,-411321,1636025659.718649,1636025659.790158,13482,0,326161,309901,442872,200935,248271,327994,-58406,-411325,1636025659.7245996,1636025659.790158,13483,0,326190,309950,442898,200956,248275,328034,-58392,-411312,1636025659.7246027,1636025659.790158,13484,0,326220,309986,442916,200955,248266,328033,-58407,-411325,1636025659.7264156,1636025659.790158,13485,0,326211,309978,442918,200958,248263,328051,-58411,-411313,1636025659.7264173,1636025659.790158,13486,0,326199,309989,442959,200958,248271,328056,-58411,-411306,1636025659.7428663,1636025659.790158,13487,0,326206,309994,442987,200958,248291,328075,-58387,-411292,1636025659.7428713,1636025659.790158,13488,0,326219,310010,443002,200979,248301,328101,-58367,-411282,1636025659.742973,1636025659.790158,13489,0,326208,310031,443009,200972,248273,328119,-58371,-411289,1636025659.7429748,1636025659.790158,13490,0,326203,310044,442999,200965,248268,328135,-58364,-411297,1636025659.7429821,1636025659.790158,13491,0,326214,310045,443033,200978,248314,328146,-58361,-411291,1636025659.7429826,1636025659.790158,13492,0,326227,310070,443072,201003,248352,328169,-58342,-411285,1636025659.7429852,1636025659.790158,13493,0,326267,310092,443061,201018,248343,328168,-58328,-411279,1636025659.7429855,1636025659.790158,13494,0,326272,310071,443032,201006,248327,328161,-58330,-411293,1636025659.746189,1636025659.790158,13495,0,326294,310077,443033,200994,248344,328169,-58319,-411298,1636025659.7461903,1636025659.790158,13496,0,326305,310091,443051,201008,248339,328166,-58314,-411273,1636025659.7502058,1636025659.790158,13497,0,326280,310100,443046,201017,248317,328174,-58307,-411262,1636025659.7502108,1636025659.790158,13498,0,326251,310101,443047,201025,248308,328163,-58321,-411285,1636025659.7569463,1636025659.790158,13499,0,326227,310074,443022,200994,248301,328133,-58346,-411316,1636025659.7569573,1636025659.790158,13500,0,326264,310103,443058,201013,248318,328138,-58349,-411312,1636025659.7583551,1636025659.790158,13501,0,326319,310156,443116,201043,248357,328168,-58323,-411283,1636025659.7583597,1636025659.790158,13502,0,326309,310146,443093,201012,248336,328157,-58335,-411291,1636025659.7636232,1636025659.790158,13503,0,326309,310146,443097,201008,248338,328164,-58338,-411286,1636025659.7636244,1636025659.790158,13504,0,326294,310133,443079,200996,248343,328168,-58324,-411287,1636025659.7667909,1636025659.790158,13505,0,326278,310158,443085,201006,248362,328163,-58312,-411296,1636025659.766792,1636025659.790158,13506,0,326294,310202,443143,201049,248390,328157,-58324,-411276,1636025659.7738235,1636025659.790158,13507,0,326304,310235,443158,201063,248411,328174,-58302,-411257,1636025659.7738338,1636025659.790158,13508,0,326328,310257,443168,201068,248424,328174,-58291,-411261,1636025659.7742953,1636025659.790158,13509,0,326351,310278,443186,201104,248485,328211,-58296,-411274,1636025659.774299,1636025659.790158,13510,0,326341,310286,443164,201101,248501,328216,-58289,-411252,1636025659.7783756,1636025659.790158,13511,0,326344,310295,443186,201114,248532,328240,-58269,-411228,1636025659.7783797,1636025659.790158,13512,0,326334,310273,443173,201101,248508,328226,-58281,-411258,1636025659.7821786,1636025659.790158,13513,0,326349,310264,443162,201089,248484,328231,-58307,-411290,1636025659.7821798,1636025659.790158,13514,0,326351,310240,443129,201039,248453,328218,-58331,-411328,1636025659.7899756,1636025659.790158,13515,0,326373,310234,443114,201029,248457,328221,-58334,-411318,1636025660,1636025659.790158,13516,0,326404,310267,443174,201078,248493,328239,-58342,-411304,1636025659.7906404,1636025659.790158,13517,0,326387,310259,443172,201086,248497,328250,-58357,-411326,1636025659.7906425,1636025659.790158,13518,0,326378,310238,443163,201056,248495,328254,-58358,-411313,1636025659.794313,1636025659.790158,13519,0,326358,310198,443174,201044,248528,328266,-58329,-411306,1636025659.794316,1636025659.790158,13520,0,326358,310198,443174,201044,248528,328266,-58329,-411306,1636025659.794316,1636025659.850994,14521,0,326328,310163,443174,201014,248497,328251,-58322,-411306,1636025659.7981782,1636025659.850994,14522,0,326399,310256,443279,201108,248571,328298,-58317,-411356,1636025659.7981803,1636025659.850994,14523,0,326426,310301,443312,201154,248628,328324,-58334,-411371,1636025660,1636025659.850994,14524,0,326381,310254,443255,201127,248619,328304,-58326,-411357,1636025659.8023334,1636025659.850994,14525,0,326383,310222,443272,201136,248592,328299,-58341,-411356,1636025659.8069909,1636025659.850994,14526,0,326390,310218,443300,201159,248592,328315,-58325,-411327,1636025659.8070111,1636025659.850994,14527,0,326421,310188,443307,201173,248593,328342,-58312,-411317,1636025659.8104064,1636025659.850994,14528,0,326446,310168,443306,201174,248581,328334,-58311,-411318,1636025659.8104086,1636025659.850994,14529,0,326456,310150,443313,201168,248557,328359,-58277,-411319,1636025659.8142283,1636025659.850994,14530,0,326458,310183,443329,201177,248543,328353,-58286,-411308,1636025659.8142304,1636025659.850994,14531,0,326456,310229,443349,201193,248563,328355,-58277,-411288,1636025659.8189373,1636025659.850994,14532,0,326476,310256,443369,201211,248578,328362,-58264,-411287,1636025659.8189394,1636025659.850994,14533,0,326526,310303,443415,201249,248579,328366,-58263,-411302,1636025659.8228757,1636025659.850994,14534,0,326511,310284,443406,201231,248562,328361,-58251,-411307,1636025659.8228877,1636025659.850994,14535,0,326508,310279,443422,201249,248578,328379,-58234,-411308,1636025659.8266172,1636025659.850994,14536,0,326466,310220,443388,201228,248567,328363,-58251,-411339,1636025659.8266199,1636025659.850994,14537,0,326478,310204,443396,201250,248575,328373,-58252,-411337,1636025659.8302152,1636025659.850994,14538,0,326551,310258,443469,201339,248616,328402,-58248,-411308,1636025659.8302171,1636025659.850994,14539,0,326561,310248,443483,201348,248663,328442,-58226,-411282,1636025659.8341515,1636025659.850994,14540,0,326533,310243,443471,201328,248661,328448,-58224,-411296,1636025659.834154,1636025659.850994,14541,0,326534,310249,443491,201326,248641,328459,-58230,-411300,1636025660,1636025659.850994,14542,0,326558,310265,443519,201348,248636,328476,-58222,-411292,1636025659.8388438,1636025659.850994,14543,0,326579,310283,443551,201354,248643,328480,-58227,-411289,1636025659.8422322,1636025659.850994,14544,0,326601,310255,443542,201349,248636,328481,-58234,-411285,1636025659.842235,1636025659.850994,14545,0,326626,310261,443558,201354,248629,328476,-58235,-411289,1636025659.846298,1636025659.850994,14546,0,326666,310321,443614,201387,248672,328508,-58202,-411265,1636025660,1636025659.850994,14547,0,326650,310311,443604,201397,248671,328529,-58187,-411261,1636025659.850592,1636025659.850994,14548,0,326634,310335,443634,201410,248678,328554,-58152,-411265,1636025659.8505933,1636025659.850994,14549,0,326649,310348,443649,201419,248674,328559,-58142,-411266,1636025659.8558822,1636025659.850994,14550,0,326679,310394,443694,201443,248659,328543,-58156,-411269,1636025659.855889,1636025659.850994,14551,0,326672,310406,443717,201411,248594,328529,-58150,-411305,1636025659.8612714,1636025659.932165,15552,0,326678,310448,443743,201418,248621,328546,-58137,-411321,1636025659.8623488,1636025659.932165,15553,0,326659,310453,443720,201412,248617,328546,-58136,-411321,1636025659.8623507,1636025659.932165,15554,0,326691,310487,443698,201411,248608,328559,-58124,-411318,1636025659.869112,1636025659.932165,15555,0,326739,310546,443716,201448,248662,328581,-58132,-411335,1636025659.869118,1636025659.932165,15556,0,326760,310594,443744,201470,248699,328584,-58136,-411324,1636025659.8704245,1636025659.932165,15557,0,326758,310594,443774,201468,248685,328575,-58149,-411336,1636025659.8704257,1636025659.932165,15558,0,326726,310562,443750,201452,248656,328576,-58168,-411332,1636025659.8743644,1636025659.932165,15559,0,326734,310564,443754,201456,248653,328593,-58181,-411343,1636025659.8743677,1636025659.932165,15560,0,326787,310638,443803,201503,248671,328603,-58166,-411331,1636025659.8782165,1636025659.932165,15561,0,326801,310654,443793,201500,248667,328598,-58158,-411345,1636025659.8782184,1636025659.932165,15562,0,326784,310661,443835,201524,248719,328605,-58159,-411359,1636025659.882442,1636025659.932165,15563,0,326753,310674,443819,201514,248728,328622,-58174,-411351,1636025659.8824432,1636025659.932165,15564,0,326784,310754,443838,201571,248766,328664,-58154,-411326,1636025659.886224,1636025659.932165,15565,0,326808,310805,443876,201614,248810,328703,-58116,-411296,1636025659.8862271,1636025659.932165,15566,0,326811,310794,443904,201627,248831,328722,-58107,-411301,1636025659.890252,1636025659.932165,15567,0,326814,310800,443924,201641,248843,328747,-58081,-411314,1636025659.8902543,1636025659.932165,15568,0,326807,310784,443919,201638,248851,328741,-58071,-411325,1636025659.894447,1636025659.932165,15569,0,326821,310814,443942,201658,248875,328761,-58069,-411311,1636025659.894448,1636025659.932165,15570,0,326845,310842,443956,201655,248875,328758,-58057,-411306,1636025659.8985894,1636025659.932165,15571,0,326854,310836,443935,201641,248866,328763,-58067,-411311,1636025659.8985913,1636025659.932165,15572,0,326873,310856,443909,201632,248871,328764,-58081,-411317,1636025659.9023468,1636025659.932165,15573,0,326890,310864,443926,201618,248887,328785,-58082,-411318,1636025659.9023616,1636025659.932165,15574,0,326920,310896,443992,201630,248907,328830,-58059,-411291,1636025659.9071643,1636025659.932165,15575,0,326906,310909,444038,201640,248894,328849,-58042,-411276,1636025659.9071665,1636025659.932165,15576,0,326897,310910,444061,201641,248904,328854,-58018,-411276,1636025659.9105363,1636025659.932165,15577,0,326924,310949,444073,201648,248921,328851,-58011,-411251,1636025659.910539,1636025659.932165,15578,0,326891,310936,444044,201624,248890,328830,-58034,-411262,1636025659.9145172,1636025659.932165,15579,0,326894,310920,444048,201616,248891,328826,-58042,-411286,1636025659.9145188,1636025659.932165,15580,0,326939,310946,444077,201624,248915,328848,-58009,-411258,1636025659.9191456,1636025659.932165,15581,0,326978,310978,444102,201652,248937,328874,-57991,-411236,1636025660,1636025659.932165,15582,0,327001,311015,444116,201666,248959,328892,-57987,-411234,1636025659.922308,1636025659.932165,15583,0,327024,311066,444140,201707,248965,328932,-57981,-411223,1636025659.9223108,1636025659.932165,15584,0,327041,311068,444147,201718,248959,328933,-57981,-411246,1636025659.9279065,1636025659.932165,15585,0,327038,311027,444136,201706,248961,328926,-57989,-411261,1636025659.927908,1636025659.932165,15586,0,327067,311063,444153,201713,248966,328938,-58004,-411252,1636025659.9301882,1636025659.932165,15587,0,327031,311023,444093,201656,248929,328919,-58018,-411287,1636025659.9301896,1636025659.932165,15588,0,327050,311039,444124,201668,248946,328913,-58007,-411268,1636025659.934523,1636025659.932165,15589,0,327087,311059,444183,201696,248967,328926,-57999,-411294,1636025659.9345253,1636025659.932165,15590,0,327107,311072,444206,201699,249016,328968,-57976,-411276,1636025659.9439335,1636025659.991687,16591,0,327073,311071,444189,201693,249016,328966,-58001,-411287,1636025659.9439356,1636025659.991687,16592,0,327080,311049,444177,201690,249015,328971,-58004,-411294,1636025659.9439461,1636025659.991687,16593,0,327114,311033,444163,201688,249025,328973,-57989,-411271,1636025659.9439466,1636025659.991687,16594,0,327158,311083,444206,201726,249077,329010,-57981,-411241,1636025659.9465003,1636025659.991687,16595,0,327207,311105,444219,201748,249089,329016,-57976,-411245,1636025659.9465024,1636025659.991687,16596,0,327244,311108,444239,201782,249123,329029,-57961,-411228,1636025659.9520955,1636025659.991687,16597,0,327234,311105,444260,201789,249141,329056,-57934,-411200,1636025659.9520977,1636025659.991687,16598,0,327228,311123,444279,201785,249139,329063,-57916,-411181,1636025659.9652743,1636025659.991687,16599,0,327251,311133,444274,201815,249143,329049,-57904,-411188,1636025659.9652767,1636025659.991687,16600,0,327243,311131,444290,201838,249172,329050,-57892,-411191,1636025659.965289,1636025659.991687,16601,0,327209,311123,444289,201844,249191,329044,-57892,-411181,1636025659.9652896,1636025659.991687,16602,0,327200,311129,444273,201846,249192,329025,-57916,-411184,1636025659.9652925,1636025659.991687,16603,0,327213,311160,444282,201894,249206,329044,-57878,-411167,1636025659.9652927,1636025659.991687,16604,0,327206,311158,444274,201886,249173,329042,-57876,-411140,1636025659.966829,1636025659.991687,16605,0,327222,311128,444278,201879,249153,329021,-57897,-411159,1636025659.9668312,1636025659.991687,16606,0,327244,311100,444281,201891,249150,329040,-57895,-411194,1636025659.9713626,1636025659.991687,16607,0,327252,311123,444316,201919,249174,329066,-57900,-411210,1636025659.9713652,1636025659.991687,16608,0,327300,311181,444348,201940,249178,329063,-57937,-411212,1636025659.9768949,1636025659.991687,16609,0,327272,311206,444350,201933,249153,329044,-57968,-411229,1636025659.976913,1636025659.991687,16610,0,327226,311176,444304,201890,249116,329044,-57961,-411247,1636025659.9808931,1636025659.991687,16611,0,327229,311148,444293,201874,249114,329046,-57955,-411254,1636025659.9808965,1636025659.991687,16612,0,327344,311284,444451,202010,249227,329094,-57934,-411194,1636025659.9828012,1636025659.991687,16613,0,327368,311291,444449,202023,249254,329104,-57909,-411181,1636025659.9828024,1636025659.991687,16614,0,327360,311260,444416,202008,249237,329103,-57910,-411202,1636025659.9862547,1636025659.991687,16615,0,327357,311254,444417,202020,249228,329109,-57914,-411209,1636025659.9862568,1636025659.991687,16616,0,327373,311274,444443,202040,249259,329128,-57904,-411201,1636025659.9904416,1636025659.991687,16617,0,327406,311307,444469,202066,249284,329156,-57889,-411186,1636025659.990444,1636025659.991687,16618,0,327424,311329,444488,202081,249311,329192,-57862,-411184,1636025659.9960065,1636025659.991687,16619,0,327393,311291,444463,202058,249264,329198,-57872,-411207,1636025659.9960084,1636025659.991687,16620,0,327408,311274,444469,202046,249258,329209,-57886,-411218,1636025659.9982347,1636025660.068788,17621,0,327444,311326,444529,202076,249308,329239,-57884,-411191,1636025659.998236,1636025660.068788,17622,0,327402,311306,444511,202064,249303,329223,-57887,-411197,1636025660.0021672,1636025660.068788,17623,0,327335,311280,444473,202028,249296,329220,-57881,-411223,1636025660.002169,1636025660.068788,17624,0,327350,311299,444464,202014,249323,329218,-57881,-411246,1636025660.006762,1636025660.068788,17625,0,327409,311350,444505,202053,249350,329218,-57886,-411264,1636025660.0067708,1636025660.068788,17626,0,327459,311406,444549,202093,249383,329274,-57897,-411268,1636025660.0103571,1636025660.068788,17627,0,327508,311433,444603,202126,249389,329283,-57879,-411249,1636025660,1636025660.068788,17628,0,327524,311440,444631,202173,249412,329284,-57896,-411279,1636025660.0145562,1636025660.068788,17629,0,327482,311431,444611,202166,249393,329288,-57918,-411282,1636025660.0145583,1636025660.068788,17630,0,327506,311456,444634,202194,249422,329320,-57898,-411275,1636025660.0196717,1636025660.068788,17631,0,327534,311461,444644,202194,249443,329346,-57884,-411276,1636025660.0196762,1636025660.068788,17632,0,327514,311456,444640,202170,249430,329336,-57909,-411281,1636025660.0228262,1636025660.068788,17633,0,327509,311446,444628,202168,249428,329345,-57926,-411293,1636025660.0228336,1636025660.068788,17634,0,327496,311437,444619,202173,249413,329343,-57921,-411306,1636025660.027125,1636025660.068788,17635,0,327506,311451,444651,202204,249440,329365,-57916,-411297,1636025660.0271268,1636025660.068788,17636,0,327521,311447,444644,202203,249439,329365,-57924,-411299,1636025660.0302734,1636025660.068788,17637,0,327520,311424,444643,202193,249409,329351,-57937,-411315,1636025660.0302756,1636025660.068788,17638,0,327524,311441,444695,202221,249416,329353,-57932,-411301,1636025660.0342488,1636025660.068788,17639,0,327500,311392,444694,202158,249358,329319,-57951,-411339,1636025660.0342512,1636025660.068788,17640,0,327483,311391,444705,202143,249336,329336,-57941,-411355,1636025660.0387287,1636025660.068788,17641,0,327498,311422,444718,202148,249331,329343,-57933,-411356,1636025660.0387328,1636025660.068788,17642,0,327501,311399,444708,202131,249337,329353,-57943,-411372,1636025660.0423977,1636025660.068788,17643,0,327507,311365,444688,202113,249323,329357,-57954,-411366,1636025660.0424001,1636025660.068788,17644,0,327561,311416,444729,202121,249343,329346,-57934,-411361,1636025660.048092,1636025660.068788,17645,0,327534,311428,444720,202107,249347,329335,-57927,-411379,1636025660.0480952,1636025660.068788,17646,0,327481,311379,444664,202053,249324,329336,-57933,-411422,1636025660.0507953,1636025660.068788,17647,0,327531,311421,444721,202117,249361,329378,-57894,-411371,1636025660.050797,1636025660.068788,17648,0,327606,311516,444830,202196,249405,329394,-57876,-411331,1636025660.0563707,1636025660.068788,17649,0,327536,311450,444783,202166,249367,329369,-57901,-411392,1636025660.0563755,1636025660.068788,17650,0,327494,311414,444776,202185,249364,329361,-57895,-411382,1636025660.059125,1636025660.068788,17651,0,327522,311448,444819,202246,249403,329366,-57864,-411340,1636025660.059127,1636025660.068788,17652,0,327546,311481,444848,202271,249441,329379,-57842,-411306,1636025660.0623603,1636025660.068788,17653,0,327555,311496,444841,202276,249449,329392,-57849,-411319,1636025660.0623617,1636025660.068788,17654,0,327471,311443,444748,202229,249386,329325,-57913,-411386,1636025660.0662477,1636025660.068788,17655,0,327468,311422,444733,202226,249389,329296,-57896,-411370,1636025660.066249,1636025660.068788,17656,0,327532,311451,444746,202231,249409,329318,-57829,-411318,1636025660.0722673,1636025660.068788,17657,0,327621,311587,444844,202329,249525,329403,-57819,-411364,1636025660,1636025660.068788,17658,0,327532,311451,444746,202231,249409,329318,-57829,-411318,1636025660.0722673,1636025660.132992,18659,0,327621,311587,444844,202329,249525,329403,-57819,-411364,1636025660,1636025660.132992,18660,0,327701,311740,444948,202417,249608,329435,-57825,-411324,1636025660.0742772,1636025660.132992,18661,0,327664,311736,444943,202407,249584,329423,-57816,-411306,1636025660.0742795,1636025660.132992,18662,0,327628,311724,444944,202411,249589,329431,-57805,-411304,1636025660.078298,1636025660.132992,18663,0,327623,311723,444938,202395,249582,329428,-57802,-411317,1636025660.0783005,1636025660.132992,18664,0,327634,311739,444960,202376,249578,329431,-57806,-411336,1636025660.0862372,1636025660.132992,18665,0,327649,311749,444991,202366,249558,329444,-57820,-411336,1636025660.0862408,1636025660.132992,18666,0,327661,311754,445006,202382,249552,329446,-57810,-411313,1636025660.086351,1636025660.132992,18667,0,327619,311714,444999,202366,249517,329446,-57832,-411366,1636025660.086353,1636025660.132992,18668,0,327610,311692,444993,202375,249505,329429,-57852,-411409,1636025660.0911374,1636025660.132992,18669,0,327627,311699,444984,202383,249519,329416,-57832,-411409,1636025660.0911407,1636025660.132992,18670,0,327604,311676,444988,202381,249522,329439,-57834,-411413,1636025660,1636025660.132992,18671,0,327579,311652,444981,202374,249496,329432,-57849,-411434,1636025660.0940316,1636025660.132992,18672,0,327577,311635,444976,202369,249498,329421,-57837,-411461,1636025660.0982902,1636025660.132992,18673,0,327560,311608,444941,202359,249488,329434,-57861,-411482,1636025660.098292,1636025660.132992,18674,0,327585,311637,444974,202391,249505,329470,-57854,-411464,1636025660.102137,1636025660.132992,18675,0,327609,311674,445015,202395,249541,329499,-57819,-411451,1636025660,1636025660.132992,18676,0,327593,311685,445045,202399,249557,329500,-57809,-411444,1636025660.1071007,1636025660.132992,18677,0,327597,311715,445068,202391,249560,329504,-57819,-411441,1636025660.107103,1636025660.132992,18678,0,327631,311730,445104,202383,249601,329518,-57801,-411425,1636025660.111406,1636025660.132992,18679,0,327626,311738,445108,202377,249633,329506,-57799,-411451,1636025660.1114085,1636025660.132992,18680,0,327616,311759,445118,202395,249651,329520,-57816,-411477,1636025660.1148133,1636025660.132992,18681,0,327598,311764,445099,202374,249621,329526,-57826,-411490,1636025660.1148157,1636025660.132992,18682,0,327619,311785,445104,202373,249618,329539,-57794,-411466,1636025660.118273,1636025660.132992,18683,0,327655,311794,445114,202413,249633,329583,-57777,-411450,1636025660.118282,1636025660.132992,18684,0,327631,311768,445103,202418,249629,329593,-57771,-411469,1636025660.1242156,1636025660.132992,18685,0,327609,311741,445112,202424,249628,329590,-57765,-411476,1636025660.1242185,1636025660.132992,18686,0,327659,311800,445151,202451,249651,329606,-57779,-411454,1636025660.1269877,1636025660.132992,18687,0,327722,311863,445212,202501,249719,329655,-57760,-411421,1636025660.1269891,1636025660.132992,18688,0,327696,311829,445195,202480,249703,329661,-57769,-411444,1636025660.130254,1636025660.132992,18689,0,327724,311836,445211,202491,249701,329673,-57768,-411469,1636025660.1302552,1636025660.132992,18690,0,327803,311843,445233,202556,249786,329710,-57714,-411428,1636025660,1636025660.210518,19691,0,327810,311864,445220,202589,249798,329730,-57692,-411411,1636025660.1422932,1636025660.210518,19692,0,327789,311838,445168,202557,249761,329730,-57719,-411444,1636025660.1462438,1636025660.210518,19693,0,327831,311840,445151,202508,249724,329754,-57743,-411466,1636025660.1462457,1636025660.210518,19694,0,327886,311897,445176,202544,249766,329808,-57746,-411457,1636025660.150287,1636025660.210518,19695,0,327888,311913,445158,202541,249774,329795,-57747,-411466,1636025660.1502893,1636025660.210518,19696,0,327961,312009,445249,202606,249818,329797,-57740,-411450,1636025660.1619709,1636025660.210518,19697,0,327951,312019,445243,202591,249810,329791,-57748,-411451,1636025660.1619728,1636025660.210518,19698,0,327935,312011,445229,202584,249804,329792,-57757,-411460,1636025660.1619856,1636025660.210518,19699,0,327971,312071,445285,202649,249845,329831,-57744,-411439,1636025660.161986,1636025660.210518,19700,0,327977,312098,445309,202680,249849,329843,-57746,-411431,1636025660.1627965,1636025660.210518,19701,0,327928,312089,445284,202673,249821,329816,-57762,-411446,1636025660.162799,1636025660.210518,19702,0,327956,312089,445292,202698,249837,329829,-57744,-411453,1636025660.167745,1636025660.210518,19703,0,327959,312060,445289,202696,249851,329835,-57719,-411474,1636025660.1677475,1636025660.210518,19704,0,327899,311986,445211,202631,249820,329796,-57737,-411534,1636025660.171578,1636025660.210518,19705,0,327979,312052,445288,202686,249854,329812,-57723,-411490,1636025660.1715803,1636025660.210518,19706,0,328056,312106,445378,202744,249893,329818,-57706,-411466,1636025660.1774166,1636025660.210518,19707,0,328043,312078,445374,202714,249891,329822,-57701,-411480,1636025660.1774185,1636025660.210518,19708,0,328030,312064,445378,202709,249889,329833,-57699,-411484,1636025660,1636025660.210518,19709,0,328024,312082,445388,202693,249883,329843,-57699,-411486,1636025660.1791823,1636025660.210518,19710,0,328033,312112,445419,202688,249871,329866,-57692,-411464,1636025660.1823943,1636025660.210518,19711,0,328076,312114,445449,202694,249874,329884,-57691,-411461,1636025660.1823964,1636025660.210518,19712,0,328091,312169,445499,202745,249914,329901,-57671,-411454,1636025660.186241,1636025660.210518,19713,0,328074,312173,445498,202741,249932,329909,-57663,-411447,1636025660.1862428,1636025660.210518,19714,0,328093,312155,445486,202722,249946,329926,-57655,-411444,1636025660.1927724,1636025660.210518,19715,0,328090,312171,445503,202743,249969,329936,-57675,-411494,1636025660.1927743,1636025660.210518,19716,0,328099,312204,445496,202757,249984,329948,-57657,-411478,1636025660.197556,1636025660.210518,19717,0,328066,312196,445505,202769,249976,329942,-57649,-411479,1636025660.1975589,1636025660.210518,19718,0,328030,312151,445478,202763,249950,329911,-57657,-411491,1636025660.1986463,1636025660.210518,19719,0,328035,312146,445487,202796,249966,329897,-57652,-411506,1636025660.1986475,1636025660.210518,19720,0,328014,312119,445474,202788,249965,329896,-57663,-411521,1636025660.2037878,1636025660.210518,19721,0,328042,312147,445508,202806,249985,329911,-57681,-411518,1636025660.2037888,1636025660.210518,19722,0,328056,312184,445541,202822,249984,329920,-57674,-411522,1636025660.2068148,1636025660.210518,19723,0,328071,312198,445564,202850,250006,329931,-57658,-411525,1636025660.2068164,1636025660.210518,19724,0,328080,312173,445559,202833,249991,329906,-57693,-411564,1636025660.2122872,1636025660.210518,19725,0,328096,312169,445554,202843,249982,329913,-57711,-411586,1636025660.2122915,1636025660.210518,19726,0,328135,312189,445571,202885,250014,329947,-57681,-411538,1636025660.2143488,1636025660.210518,19727,0,328159,312216,445583,202903,250039,329971,-57674,-411504,1636025660.2143512,1636025660.210518,19728,0,328177,312243,445602,202918,250073,329965,-57669,-411487,1636025660.2191892,1636025660.270949,20729,0,328196,312258,445654,202934,250085,329978,-57672,-411494,1636025660.2191937,1636025660.270949,20730,0,328209,312240,445643,202913,250096,329974,-57669,-411494,1636025660.222391,1636025660.270949,20731,0,328217,312261,445638,202911,250099,329981,-57655,-411489,1636025660.2223969,1636025660.270949,20732,0,328230,312278,445638,202903,250112,329991,-57654,-411497,1636025660.2271748,1636025660.270949,20733,0,328246,312325,445683,202923,250123,330005,-57653,-411491,1636025660.2271776,1636025660.270949,20734,0,328220,312327,445648,202918,250127,330014,-57656,-411491,1636025660.2306447,1636025660.270949,20735,0,328213,312337,445656,202937,250142,330023,-57654,-411487,1636025660.230647,1636025660.270949,20736,0,328286,312428,445731,202997,250196,330050,-57631,-411446,1636025660.2342427,1636025660.270949,20737,0,328246,312411,445689,202961,250183,330038,-57655,-411464,1636025660.2342446,1636025660.270949,20738,0,328244,312428,445674,202971,250228,330064,-57661,-411474,1636025660.2403064,1636025660.270949,20739,0,328242,312434,445644,202954,250258,330038,-57675,-411502,1636025660.2403088,1636025660.270949,20740,0,328245,312462,445639,202959,250270,330038,-57686,-411514,1636025660.2423418,1636025660.270949,20741,0,328239,312479,445642,202977,250275,330053,-57663,-411490,1636025660,1636025660.270949,20742,0,328239,312491,445656,203002,250271,330050,-57664,-411485,1636025660.2464695,1636025660.270949,20743,0,328245,312519,445698,203030,250296,330070,-57642,-411493,1636025660.2464733,1636025660.270949,20744,0,328224,312519,445698,203010,250289,330059,-57656,-411499,1636025660.2505612,1636025660.270949,20745,0,328215,312516,445707,203020,250306,330062,-57651,-411484,1636025660.2505636,1636025660.270949,20746,0,328199,312511,445718,203048,250298,330061,-57656,-411497,1636025660.254452,1636025660.270949,20747,0,328199,312528,445729,203053,250309,330067,-57666,-411494,1636025660.254455,1636025660.270949,20748,0,328178,312519,445718,203048,250318,330063,-57677,-411504,1636025660.2582476,1636025660.270949,20749,0,328209,312554,445747,203084,250341,330090,-57657,-411482,1636025660.2582512,1636025660.270949,20750,0,328244,312584,445766,203098,250363,330092,-57645,-411462,1636025660.2621882,1636025660.270949,20751,0,328274,312579,445773,203121,250411,330100,-57631,-411446,1636025660.2621894,1636025660.270949,20752,0,328268,312530,445748,203104,250414,330096,-57624,-411461,1636025660,1636025660.270949,20753,0,328283,312505,445722,203083,250399,330082,-57639,-411485,1636025660.2672913,1636025660.270949,20754,0,328313,312534,445740,203099,250394,330075,-57666,-411521,1636025660.2701793,1636025660.270949,20755,0,328311,312534,445758,203110,250388,330078,-57646,-411521,1636025660.2701807,1636025660.270949,20756,0,328308,312511,445741,203088,250365,330048,-57649,-411537,1636025660.276336,1636025660.270949,20757,0,328258,312485,445693,203043,250328,330010,-57692,-411574,1636025660.2763405,1636025660.270949,20758,0,328313,312532,445720,203090,250334,330036,-57662,-411534,1636025660.278663,1636025660.352702,21759,0,328374,312590,445773,203143,250353,330078,-57632,-411515,1636025660.2786644,1636025660.352702,21760,0,328324,312559,445754,203107,250334,330081,-57644,-411526,1636025660.2823825,1636025660.352702,21761,0,328344,312577,445799,203118,250361,330089,-57634,-411487,1636025660.282384,1636025660.352702,21762,0,328422,312650,445879,203174,250416,330116,-57592,-411449,1636025660.287747,1636025660.352702,21763,0,328411,312634,445856,203152,250415,330098,-57621,-411479,1636025660.287751,1636025660.352702,21764,0,328408,312596,445843,203144,250427,330095,-57629,-411475,1636025660.2947056,1636025660.352702,21765,0,328443,312619,445865,203180,250464,330113,-57584,-411469,1636025660.2947075,1636025660.352702,21766,0,328440,312628,445868,203183,250488,330106,-57584,-411453,1636025660.2947204,1636025660.352702,21767,0,328486,312685,445911,203206,250550,330126,-57580,-411476,1636025660.294721,1636025660.352702,21768,0,328488,312686,445901,203224,250588,330129,-57569,-411456,1636025660.3028824,1636025660.352702,21769,0,328464,312656,445858,203180,250541,330108,-57561,-411426,1636025660.3028846,1636025660.352702,21770,0,328423,312669,445846,203173,250518,330083,-57591,-411460,1636025660.3028965,1636025660.352702,21771,0,328432,312659,445836,203149,250501,330064,-57599,-411446,1636025660.3028972,1636025660.352702,21772,0,328511,312761,445925,203260,250588,330133,-57615,-411534,1636025660.310267,1636025660.352702,21773,0,328516,312790,445954,203296,250606,330143,-57587,-411501,1636025660.310269,1636025660.352702,21774,0,328438,312709,445864,203254,250554,330138,-57590,-411522,1636025660.3103557,1636025660.352702,21775,0,328461,312734,445876,203294,250591,330166,-57563,-411504,1636025660.310357,1636025660.352702,21776,0,328541,312821,445959,203364,250628,330176,-57541,-411472,1636025660.3147204,1636025660.352702,21777,0,328516,312812,445941,203368,250604,330174,-57573,-411506,1636025660.314723,1636025660.352702,21778,0,328515,312795,445935,203389,250613,330198,-57568,-411517,1636025660.318163,1636025660.352702,21779,0,328493,312783,445914,203377,250596,330205,-57565,-411531,1636025660.3181648,1636025660.352702,21780,0,328485,312769,445909,203373,250593,330191,-57568,-411546,1636025660.3242977,1636025660.352702,21781,0,328560,312851,445998,203445,250656,330234,-57526,-411497,1636025660.3242998,1636025660.352702,21782,0,328607,312863,446024,203445,250682,330249,-57519,-411501,1636025660.328513,1636025660.352702,21783,0,328591,312824,445999,203422,250674,330239,-57542,-411530,1636025660.328515,1636025660.352702,21784,0,328563,312818,445996,203421,250663,330263,-57542,-411522,1636025660.3306684,1636025660.352702,21785,0,328504,312792,445986,203387,250654,330267,-57543,-411532,1636025660.3306706,1636025660.352702,21786,0,328482,312828,446010,203403,250660,330253,-57557,-411559,1636025660.335842,1636025660.352702,21787,0,328484,312854,446045,203412,250674,330254,-57591,-411577,1636025660,1636025660.352702,21788,0,328434,312801,445979,203353,250643,330248,-57627,-411597,1636025660.3395517,1636025660.352702,21789,0,328425,312818,445982,203361,250670,330274,-57596,-411591,1636025660.3395567,1636025660.352702,21790,0,328478,312863,446022,203386,250688,330277,-57591,-411558,1636025660.3422067,1636025660.352702,21791,0,328527,312894,446058,203428,250719,330286,-57587,-411532,1636025660.3422096,1636025660.352702,21792,0,328512,312881,446015,203404,250718,330283,-57597,-411545,1636025660.346184,1636025660.352702,21793,0,328527,312888,446028,203426,250731,330291,-57608,-411561,1636025660.346186,1636025660.352702,21794,0,328515,312911,446037,203442,250734,330266,-57612,-411577,1636025660.3500948,1636025660.352702,21795,0,328513,312952,446046,203470,250770,330254,-57593,-411587,1636025660.3500965,1636025660.352702,21796,0,328514,312962,446041,203486,250805,330258,-57594,-411591,1636025660.354338,1636025660.352702,21797,0,328518,312940,446024,203474,250796,330228,-57612,-411606,1636025660.3543427,1636025660.352702,21798,0,328536,312943,446038,203473,250814,330202,-57602,-411606,1636025660.3655584,1636025660.413941,22799,0,328562,312968,446073,203507,250851,330204,-57607,-411599,1636025660.3655603,1636025660.413941,22800,0,328605,313016,446122,203535,250871,330214,-57616,-411602,1636025660.367584,1636025660.413941,22801,0,328599,313032,446148,203552,250882,330252,-57574,-411587,1636025660.3675861,1636025660.413941,22802,0,328621,313032,446186,203580,250915,330283,-57543,-411540,1636025660.367598,1636025660.413941,22803,0,328621,313033,446192,203558,250898,330279,-57547,-411551,1636025660.3675983,1636025660.413941,22804,0,328580,313044,446191,203554,250897,330275,-57550,-411559,1636025660.3705664,1636025660.413941,22805,0,328517,312996,446152,203526,250884,330239,-57568,-411609,1636025660.3705685,1636025660.413941,22806,0,328549,313042,446179,203568,250903,330271,-57550,-411619,1636025660.3801365,1636025660.413941,22807,0,328561,313086,446221,203592,250912,330293,-57539,-411622,1636025660.3801389,1636025660.413941,22808,0,328559,313091,446228,203581,250927,330313,-57539,-411624,1636025660.3801515,1636025660.413941,22809,0,328619,313142,446276,203608,250960,330343,-57530,-411602,1636025660.3801525,1636025660.413941,22810,0,328628,313134,446264,203598,250976,330335,-57519,-411581,1636025660.3859792,1636025660.413941,22811,0,328596,313093,446226,203586,250991,330296,-57534,-411587,1636025660.385982,1636025660.413941,22812,0,328564,313079,446197,203577,251001,330274,-57569,-411619,1636025660.386511,1636025660.413941,22813,0,328579,313137,446241,203628,251056,330300,-57550,-411603,1636025660.3865125,1636025660.413941,22814,0,328610,313148,446256,203654,251078,330323,-57540,-411596,1636025660.390258,1636025660.413941,22815,0,328651,313171,446254,203664,251079,330358,-57528,-411593,1636025660.3902605,1636025660.413941,22816,0,328664,313224,446273,203659,251097,330383,-57489,-411570,1636025660.3945231,1636025660.413941,22817,0,328639,313235,446295,203675,251118,330384,-57482,-411571,1636025660.394525,1636025660.413941,22818,0,328667,313249,446336,203689,251143,330413,-57471,-411535,1636025660.398682,1636025660.413941,22819,0,328624,313238,446345,203651,251151,330397,-57494,-411556,1636025660.3986907,1636025660.413941,22820,0,328636,313248,446359,203668,251168,330403,-57499,-411559,1636025660.4133282,1636025660.413941,22821,0,328666,313257,446374,203696,251174,330411,-57484,-411549,1636025660.4133332,1636025660.413941,22822,0,328674,313253,446379,203693,251172,330410,-57478,-411561,1636025660.4133508,1636025660.413941,22823,0,328700,313236,446407,203710,251204,330441,-57452,-411557,1636025660.4133515,1636025660.413941,22824,0,328686,313203,446374,203663,251175,330451,-57454,-411576,1636025660.4133546,1636025660.413941,22825,0,328706,313226,446409,203672,251164,330457,-57455,-411553,1636025660.4133554,1636025660.413941,22826,0,328699,313224,446430,203714,251203,330483,-57431,-411554,1636025660.4141748,1636025660.413941,22827,0,328696,313235,446441,203736,251208,330489,-57419,-411542,1636025660.414177,1636025660.413941,22828,0,328763,313264,446457,203786,251253,330533,-57388,-411541,1636025660.4238951,1636025660.491686,23829,0,328783,313268,446458,203802,251273,330553,-57356,-411528,1636025660.423898,1636025660.491686,23830,0,328769,313280,446463,203806,251285,330560,-57358,-411538,1636025660.4261405,1636025660.491686,23831,0,328801,313315,446482,203842,251313,330586,-57332,-411514,1636025660.426142,1636025660.491686,23832,0,328803,313314,446465,203826,251289,330576,-57338,-411527,1636025660.4303355,1636025660.491686,23833,0,328791,313307,446459,203813,251276,330563,-57322,-411560,1636025660.4303377,1636025660.491686,23834,0,328762,313284,446443,203787,251268,330569,-57334,-411565,1636025660,1636025660.491686,23835,0,328749,313269,446449,203771,251273,330606,-57333,-411557,1636025660.4344027,1636025660.491686,23836,0,328784,313315,446478,203785,251308,330630,-57332,-411553,1636025660.438516,1636025660.491686,23837,0,328826,313367,446533,203817,251365,330647,-57317,-411549,1636025660.4385183,1636025660.491686,23838,0,328797,313350,446518,203808,251379,330663,-57307,-411552,1636025660,1636025660.491686,23839,0,328799,313352,446511,203810,251378,330686,-57312,-411551,1636025660.4423125,1636025660.491686,23840,0,328823,313366,446540,203806,251388,330708,-57310,-411536,1636025660.4462228,1636025660.491686,23841,0,328874,313375,446588,203823,251403,330736,-57320,-411532,1636025660.4462247,1636025660.491686,23842,0,328931,313426,446633,203886,251450,330776,-57315,-411508,1636025660.4505837,1636025660.491686,23843,0,328951,313431,446626,203879,251451,330776,-57307,-411531,1636025660.4505866,1636025660.491686,23844,0,328884,313383,446562,203824,251426,330766,-57326,-411586,1636025660.4542203,1636025660.491686,23845,0,328843,313373,446547,203808,251416,330764,-57359,-411612,1636025660.4542232,1636025660.491686,23846,0,328889,313414,446582,203864,251448,330789,-57364,-411573,1636025660.4600148,1636025660.491686,23847,0,328928,313443,446606,203883,251474,330796,-57364,-411569,1636025660.4600172,1636025660.491686,23848,0,328935,313476,446612,203899,251486,330783,-57329,-411579,1636025660.4622693,1636025660.491686,23849,0,328944,313515,446632,203943,251524,330830,-57291,-411542,1636025660.462276,1636025660.491686,23850,0,328992,313538,446671,203988,251552,330859,-57287,-411503,1636025660.466517,1636025660.491686,23851,0,329006,313539,446701,204013,251569,330874,-57281,-411502,1636025660.4665194,1636025660.491686,23852,0,328948,313503,446653,203974,251518,330851,-57310,-411521,1636025660.470534,1636025660.491686,23853,0,328947,313523,446672,203995,251511,330871,-57287,-411486,1636025660.470536,1636025660.491686,23854,0,329006,313540,446691,204034,251519,330870,-57292,-411511,1636025660.4743102,1636025660.491686,23855,0,329061,313578,446746,204103,251582,330909,-57312,-411613,1636025660.4743133,1636025660.491686,23856,0,329030,313543,446739,204096,251584,330901,-57317,-411600,1636025660.478274,1636025660.491686,23857,0,328996,313517,446732,204107,251568,330913,-57311,-411566,1636025660.4783003,1636025660.491686,23858,0,329011,313560,446764,204151,251591,330931,-57283,-411554,1636025660.4837039,1636025660.491686,23859,0,329014,313559,446766,204154,251586,330943,-57286,-411562,1636025660.4837143,1636025660.491686,23860,0,329016,313543,446768,204158,251569,330946,-57282,-411590,1636025660.486215,1636025660.491686,23861,0,329035,313544,446795,204186,251584,330950,-57278,-411588,1636025660.486217,1636025660.491686,23862,0,329073,313556,446825,204203,251598,330979,-57281,-411572,1636025660.495376,1636025660.491686,23863,0,329117,313544,446827,204220,251598,330991,-57252,-411571,1636025660.4953809,1636025660.491686,23864,0,329130,313533,446839,204243,251598,331000,-57227,-411561,1636025660.495545,1636025660.491686,23865,0,329133,313504,446818,204238,251596,331014,-57242,-411571,1636025660.4955463,1636025660.491686,23866,0,329090,313465,446801,204226,251608,331022,-57261,-411605,1636025660.4984424,1636025660.554288,24867,0,329101,313473,446816,204234,251615,331026,-57280,-411609,1636025660.5050852,1636025660.554288,24868,0,329144,313514,446858,204269,251637,331019,-57295,-411623,1636025660.5050874,1636025660.554288,24869,0,329133,313501,446860,204250,251634,331028,-57272,-411633,1636025660.506866,1636025660.554288,24870,0,329152,313517,446878,204249,251661,331031,-57249,-411621,1636025660.506868,1636025660.554288,24871,0,329143,313532,446865,204243,251712,331044,-57256,-411648,1636025660.5103345,1636025660.554288,24872,0,329153,313545,446864,204261,251705,331031,-57269,-411645,1636025660.510337,1636025660.554288,24873,0,329166,313546,446870,204269,251718,331032,-57258,-411654,1636025660.5147457,1636025660.554288,24874,0,329159,313520,446841,204263,251704,331024,-57275,-411705,1636025660.514748,1636025660.554288,24875,0,329206,313551,446876,204316,251743,331053,-57256,-411675,1636025660.5213504,1636025660.554288,24876,0,329248,313604,446949,204381,251791,331082,-57234,-411652,1636025660.5213556,1636025660.554288,24877,0,329216,313618,446950,204401,251788,331091,-57239,-411674,1636025660.5241315,1636025660.554288,24878,0,329217,313648,446959,204447,251804,331101,-57210,-411656,1636025660.524136,1636025660.554288,24879,0,329221,313686,446985,204473,251844,331098,-57202,-411646,1636025660.5265048,1636025660.554288,24880,0,329202,313683,446997,204451,251878,331117,-57209,-411634,1636025660.5265071,1636025660.554288,24881,0,329188,313681,447001,204431,251887,331136,-57212,-411626,1636025660.5306633,1636025660.554288,24882,0,329211,313750,447082,204482,251922,331172,-57181,-411627,1636025660.5306656,1636025660.554288,24883,0,329237,313756,447098,204493,251973,331192,-57157,-411633,1636025660.5342743,1636025660.554288,24884,0,329238,313711,447053,204471,251983,331183,-57192,-411664,1636025660.5342767,1636025660.554288,24885,0,329218,313689,447041,204456,251987,331178,-57199,-411639,1636025660.5385253,1636025660.554288,24886,0,329171,313678,447004,204434,251952,331173,-57215,-411647,1636025660.5385315,1636025660.554288,24887,0,329173,313696,447016,204440,251969,331156,-57214,-411671,1636025660.554716,1636025660.554288,24888,0,329194,313713,447042,204483,252019,331174,-57172,-411657,1636025660.5547225,1636025660.554288,24889,0,329156,313650,447011,204463,252029,331169,-57175,-411664,1636025660.5547583,1636025660.554288,24890,0,329172,313672,447057,204495,252015,331168,-57175,-411651,1636025660.5547607,1636025660.554288,24891,0,329203,313711,447071,204516,252006,331183,-57179,-411645,1636025660.554767,1636025660.554288,24892,0,329197,313743,447100,204528,252036,331214,-57177,-411656,1636025660.554778,1636025660.554288,24893,0,329225,313789,447141,204553,252061,331245,-57158,-411649,1636025660.5547826,1636025660.554288,24894,0,329213,313746,447089,204493,252021,331226,-57176,-411703,1636025660.554783,1636025660.554288,24895,0,329238,313767,447093,204485,252043,331249,-57204,-411754,1636025660.5587125,1636025660.554288,24896,0,329238,313786,447121,204487,252074,331264,-57201,-411765,1636025660.5587158,1636025660.554288,24897,0,329238,313786,447121,204487,252074,331264,-57201,-411765,1636025660.5587158,1636025660.630343,25898,0,329214,313796,447118,204458,252065,331230,-57207,-411769,1636025660.5621676,1636025660.630343,25899,0,329225,313839,447153,204476,252069,331237,-57217,-411770,1636025660.5621688,1636025660.630343,25900,0,329271,313904,447203,204533,252107,331266,-57202,-411744,1636025660.5662277,1636025660.630343,25901,0,329260,313926,447198,204533,252123,331301,-57186,-411742,1636025660.566229,1636025660.630343,25902,0,329242,313935,447195,204524,252125,331311,-57179,-411742,1636025660.571876,1636025660.630343,25903,0,329270,313988,447264,204557,252166,331340,-57166,-411701,1636025660.571879,1636025660.630343,25904,0,329258,314004,447280,204592,252170,331338,-57156,-411695,1636025660.5768886,1636025660.630343,25905,0,329248,314004,447283,204609,252176,331333,-57150,-411696,1636025660.5768907,1636025660.630343,25906,0,329230,313991,447276,204588,252177,331324,-57162,-411705,1636025660.5802753,1636025660.630343,25907,0,329259,314021,447291,204602,252194,331333,-57170,-411727,1636025660.5802777,1636025660.630343,25908,0,329283,314022,447281,204615,252171,331314,-57197,-411758,1636025660.584134,1636025660.630343,25909,0,329309,314043,447321,204662,252184,331356,-57188,-411740,1636025660.5841367,1636025660.630343,25910,0,329323,314069,447342,204686,252209,331379,-57163,-411716,1636025660.586217,1636025660.630343,25911,0,329323,314114,447371,204716,252239,331409,-57123,-411699,1636025660.586223,1636025660.630343,25912,0,329305,314115,447356,204721,252266,331428,-57123,-411695,1636025660.590676,1636025660.630343,25913,0,329318,314127,447371,204732,252291,331444,-57122,-411697,1636025660.5906796,1636025660.630343,25914,0,329320,314159,447387,204751,252296,331456,-57108,-411692,1636025660.5941637,1636025660.630343,25915,0,329300,314110,447363,204729,252269,331443,-57144,-411731,1636025660.5941656,1636025660.630343,25916,0,329333,314146,447442,204781,252293,331470,-57134,-411725,1636025660.5981455,1636025660.630343,25917,0,329292,314121,447410,204757,252259,331455,-57146,-411748,1636025660.598147,1636025660.630343,25918,0,329305,314137,447395,204769,252249,331442,-57136,-411748,1636025660.6023688,1636025660.630343,25919,0,329264,314145,447401,204796,252260,331432,-57139,-411747,1636025660.6023717,1636025660.630343,25920,0,329263,314152,447400,204808,252268,331436,-57152,-411747,1636025660.606541,1636025660.630343,25921,0,329331,314233,447467,204836,252284,331448,-57127,-411724,1636025660.6065447,1636025660.630343,25922,0,329311,314230,447499,204843,252289,331465,-57122,-411721,1636025660.6139617,1636025660.630343,25923,0,329289,314219,447520,204851,252301,331461,-57123,-411729,1636025660.6139646,1636025660.630343,25924,0,329299,314239,447557,204887,252334,331473,-57125,-411728,1636025660.6141758,1636025660.630343,25925,0,329294,314228,447540,204870,252340,331453,-57151,-411757,1636025660.6141768,1636025660.630343,25926,0,329292,314224,447533,204872,252359,331441,-57115,-411747,1636025660.6183963,1636025660.630343,25927,0,329291,314221,447536,204863,252373,331429,-57138,-411782,1636025660.6184115,1636025660.630343,25928,0,329345,314244,447571,204870,252431,331473,-57112,-411764,1636025660.622356,1636025660.630343,25929,0,329337,314221,447549,204868,252451,331489,-57124,-411774,1636025660.6223595,1636025660.630343,25930,0,329340,314241,447583,204918,252485,331486,-57144,-411803,1636025660.6261916,1636025660.630343,25931,0,329366,314257,447598,204944,252496,331468,-57138,-411783,1636025660.6261933,1636025660.630343,25932,0,329340,314211,447583,204926,252478,331466,-57169,-411803,1636025661,1636025660.630343,25933,0,329355,314214,447604,204939,252470,331513,-57139,-411792,1636025660.6301348,1636025660.630343,25934,0,329333,314146,447442,204781,252293,331470,-57134,-411725,1636025660.5981455,1636025660.691538,26935,0,329292,314121,447410,204757,252259,331455,-57146,-411748,1636025660.598147,1636025660.691538,26936,0,329305,314137,447395,204769,252249,331442,-57136,-411748,1636025660.6023688,1636025660.691538,26937,0,329264,314145,447401,204796,252260,331432,-57139,-411747,1636025660.6023717,1636025660.691538,26938,0,329263,314152,447400,204808,252268,331436,-57152,-411747,1636025660.606541,1636025660.691538,26939,0,329331,314233,447467,204836,252284,331448,-57127,-411724,1636025660.6065447,1636025660.691538,26940,0,329311,314230,447499,204843,252289,331465,-57122,-411721,1636025660.6139617,1636025660.691538,26941,0,329289,314219,447520,204851,252301,331461,-57123,-411729,1636025660.6139646,1636025660.691538,26942,0,329299,314239,447557,204887,252334,331473,-57125,-411728,1636025660.6141758,1636025660.691538,26943,0,329294,314228,447540,204870,252340,331453,-57151,-411757,1636025660.6141768,1636025660.691538,26944,0,329292,314224,447533,204872,252359,331441,-57115,-411747,1636025660.6183963,1636025660.691538,26945,0,329291,314221,447536,204863,252373,331429,-57138,-411782,1636025660.6184115,1636025660.691538,26946,0,329345,314244,447571,204870,252431,331473,-57112,-411764,1636025660.622356,1636025660.691538,26947,0,329337,314221,447549,204868,252451,331489,-57124,-411774,1636025660.6223595,1636025660.691538,26948,0,329340,314241,447583,204918,252485,331486,-57144,-411803,1636025660.6261916,1636025660.691538,26949,0,329366,314257,447598,204944,252496,331468,-57138,-411783,1636025660.6261933,1636025660.691538,26950,0,329340,314211,447583,204926,252478,331466,-57169,-411803,1636025661,1636025660.691538,26951,0,329355,314214,447604,204939,252470,331513,-57139,-411792,1636025660.6301348,1636025660.691538,26952,0,329393,314244,447648,204988,252486,331552,-57087,-411756,1636025660.6351953,1636025660.691538,26953,0,329374,314216,447626,204979,252486,331541,-57079,-411770,1636025660.6351972,1636025660.691538,26954,0,329394,314241,447636,205014,252483,331531,-57061,-411750,1636025660.6386843,1636025660.691538,26955,0,329445,314314,447697,205059,252491,331554,-57042,-411723,1636025660.638687,1636025660.691538,26956,0,329465,314343,447719,205087,252488,331578,-57024,-411746,1636025660.6422062,1636025660.691538,26957,0,329486,314361,447729,205104,252499,331589,-57034,-411770,1636025660.6422095,1636025660.691538,26958,0,329504,314378,447721,205141,252520,331611,-57027,-411754,1636025660.6462684,1636025660.691538,26959,0,329501,314383,447737,205162,252527,331623,-57009,-411734,1636025660.6462708,1636025660.691538,26960,0,329460,314359,447706,205155,252520,331628,-57024,-411739,1636025660.6506824,1636025660.691538,26961,0,329424,314322,447658,205132,252530,331614,-57044,-411741,1636025660.6506853,1636025660.691538,26962,0,329436,314344,447689,205172,252547,331616,-57032,-411717,1636025660.6542768,1636025660.691538,26963,0,329398,314316,447663,205143,252501,331578,-57080,-411742,1636025660.6542792,1636025660.691538,26964,0,329705,314487,448024,205299,252553,331772,-57044,-411744,1636025660.6990824,1636025660.770555,27965,0,329681,314468,448010,205270,252524,331761,-57054,-411760,1636025660.699085,1636025660.770555,27966,0,329720,314482,448005,205286,252513,331774,-57045,-411749,1636025660.6990852,1636025660.770555,27967,0,329787,314511,448033,205304,252541,331799,-57029,-411755,1636025660.7022884,1636025660.770555,27968,0,329785,314541,448045,205303,252553,331808,-57037,-411766,1636025660.7022913,1636025660.770555,27969,0,329755,314529,448043,205271,252523,331808,-57027,-411769,1636025660.706122,1636025660.770555,27970,0,329750,314521,448053,205253,252536,331836,-57006,-411733,1636025660.706124,1636025660.770555,27971,0,329772,314596,448122,205273,252553,331866,-56981,-411682,1636025660.7102816,1636025660.770555,27972,0,329786,314629,448156,205306,252573,331896,-56963,-411664,1636025660.710287,1636025660.770555,27973,0,329854,314668,448195,205372,252648,331957,-56968,-411736,1636025660.714188,1636025660.770555,27974,0,329879,314681,448204,205378,252667,331973,-56996,-411742,1636025660.7141905,1636025660.770555,27975,0,329909,314684,448211,205372,252645,331964,-56990,-411717,1636025660.7216022,1636025660.770555,27976,0,329915,314676,448209,205347,252616,331976,-56981,-411726,1636025660.7216065,1636025660.770555,27977,0,329916,314676,448213,205334,252594,331956,-56967,-411729,1636025660.722561,1636025660.770555,27978,0,329878,314688,448246,205353,252579,331969,-56938,-411712,1636025660.7225668,1636025660.770555,27979,0,329866,314692,448271,205353,252551,331961,-56954,-411711,1636025660.7266512,1636025660.770555,27980,0,329893,314723,448293,205385,252548,331988,-56947,-411711,1636025660.726653,1636025660.770555,27981,0,329870,314706,448286,205376,252514,331995,-56956,-411735,1636025660.7316277,1636025660.770555,27982,0,329903,314731,448305,205396,252519,332019,-56921,-411716,1636025660.7316296,1636025660.770555,27983,0,329909,314718,448299,205399,252485,332018,-56914,-411717,1636025660.7342052,1636025660.770555,27984,0,329893,314691,448294,205384,252471,332021,-56911,-411735,1636025660.7342072,1636025660.770555,27985,0,329859,314658,448256,205363,252444,331993,-56928,-411764,1636025660.7382994,1636025660.770555,27986,0,329899,314680,448288,205391,252458,331999,-56923,-411756,1636025660.7383015,1636025660.770555,27987,0,329968,314711,448345,205416,252498,332033,-56898,-411725,1636025660.742241,1636025660.770555,27988,0,329983,314707,448354,205399,252493,332034,-56897,-411737,1636025660.7422447,1636025660.770555,27989,0,329993,314731,448360,205413,252481,332034,-56878,-411761,1636025660.747453,1636025660.770555,27990,0,330041,314776,448375,205447,252494,332052,-56859,-411745,1636025660.7474644,1636025660.770555,27991,0,330040,314794,448391,205473,252482,332063,-56859,-411743,1636025660.7507155,1636025660.770555,27992,0,330013,314811,448376,205503,252474,332083,-56856,-411713,1636025660.7507176,1636025660.770555,27993,0,330001,314822,448380,205524,252497,332117,-56851,-411681,1636025660.754182,1636025660.770555,27994,0,329994,314809,448378,205521,252488,332128,-56872,-411692,1636025660.7541895,1636025660.770555,27995,0,330014,314811,448394,205534,252479,332130,-56876,-411710,1636025660.7600696,1636025660.770555,27996,0,329996,314796,448399,205521,252462,332124,-56867,-411732,1636025660.7600727,1636025660.770555,27997,0,330016,314798,448406,205512,252436,332121,-56869,-411752,1636025660.7622805,1636025660.770555,27998,0,330030,314797,448398,205493,252427,332134,-56849,-411759,1636025660.7622817,1636025660.770555,27999,0,330016,314780,448399,205496,252384,332112,-56855,-411765,1636025660.7673569,1636025660.770555,271000,0,329971,314751,448385,205486,252361,332093,-56897,-411799,1636025660.767358,1636025660.770555,271001,0,330039,314831,448471,205560,252419,332155,-56866,-411767,1636025660.770188,1636025660.770555,271002,0,330049,314856,448461,205573,252438,332191,-56841,-411761,1636025660.7701893,1636025660.770555,271003,0,330053,314943,448494,205646,252472,332202,-56808,-411739,1636025660.7783356,1636025660.834818,281004,0,330079,314951,448521,205654,252489,332240,-56793,-411717,1636025660.7783368,1636025660.834818,281005,0,330074,314972,448506,205644,252509,332240,-56799,-411716,1636025660.7863643,1636025660.834818,281006,0,330099,315001,448534,205659,252546,332263,-56786,-411710,1636025660.7863662,1636025660.834818,281007,0,330114,315003,448564,205666,252536,332267,-56794,-411711,1636025660.7864995,1636025660.834818,281008,0,330087,315002,448572,205673,252530,332256,-56803,-411732,1636025660.7865007,1636025660.834818,281009,0,330075,314976,448579,205681,252551,332243,-56802,-411716,1636025660.7914884,1636025660.834818,281010,0,330088,314968,448571,205691,252583,332251,-56801,-411682,1636025660.7914908,1636025660.834818,281011,0,330063,314981,448572,205687,252579,332262,-56801,-411694,1636025660.7946892,1636025660.834818,281012,0,330048,314971,448551,205653,252553,332247,-56816,-411712,1636025660.7946913,1636025660.834818,281013,0,330076,314955,448552,205668,252542,332236,-56802,-411716,1636025660.7986577,1636025660.834818,281014,0,330063,314945,448553,205683,252524,332229,-56803,-411721,1636025661,1636025660.834818,281015,0,330088,314973,448579,205679,252536,332263,-56789,-411689,1636025660.8026412,1636025660.834818,281016,0,330100,314965,448576,205674,252542,332257,-56804,-411705,1636025660.8026433,1636025660.834818,281017,0,330164,315003,448633,205724,252572,332278,-56784,-411684,1636025660.8071191,1636025660.834818,281018,0,330197,315021,448677,205758,252596,332286,-56752,-411667,1636025660.8071215,1636025660.834818,281019,0,330146,314984,448653,205761,252584,332284,-56750,-411696,1636025660.8106632,1636025660.834818,281020,0,330129,314966,448656,205762,252579,332257,-56756,-411699,1636025660.8106656,1636025660.834818,281021,0,330117,314947,448610,205743,252576,332254,-56756,-411687,1636025660.8147829,1636025660.834818,281022,0,330118,314940,448594,205773,252610,332267,-56770,-411723,1636025660.8147848,1636025660.834818,281023,0,330081,314914,448573,205773,252628,332267,-56771,-411729,1636025660.8187263,1636025660.834818,281024,0,330143,315003,448666,205838,252679,332278,-56754,-411696,1636025660.8187308,1636025660.834818,281025,0,330168,315024,448697,205869,252689,332299,-56742,-411702,1636025660.8331892,1636025660.834818,281026,0,330186,315031,448711,205874,252691,332311,-56728,-411704,1636025660.8331933,1636025660.834818,281027,0,330218,315074,448758,205921,252695,332319,-56734,-411704,1636025660.8332305,1636025660.834818,281028,0,330232,315083,448774,205951,252689,332347,-56724,-411699,1636025660.8332324,1636025660.834818,281029,0,330209,315069,448779,205956,252667,332349,-56735,-411699,1636025660.8332407,1636025660.834818,281030,0,330195,315066,448794,205964,252664,332375,-56726,-411688,1636025660.8332417,1636025660.834818,281031,0,330198,315062,448815,205978,252679,332407,-56694,-411658,1636025660.838708,1636025660.834818,281032,0,330239,315080,448829,205991,252694,332423,-56677,-411656,1636025660.8387227,1636025660.834818,281033,0,330276,315107,448875,206049,252727,332452,-56673,-411669,1636025660.8387363,1636025660.834818,281034,0,330311,315118,448926,206111,252719,332470,-56689,-411659,1636025660.8387372,1636025660.834818,281035,0,330347,315132,448945,206116,252745,332508,-56676,-411683,1636025660.8452227,1636025661,291036,0,330346,315148,448963,206142,252760,332519,-56658,-411660,1636025660.846202,1636025661,291037,0,330307,315123,448966,206136,252722,332517,-56652,-411658,1636025660.8462057,1636025661,291038,0,330283,315094,448977,206121,252688,332528,-56645,-411644,1636025660.851405,1636025661,291039,0,330271,315058,448971,206105,252654,332529,-56654,-411664,1636025660.8514075,1636025661,291040,0,330270,315058,449005,206131,252678,332521,-56651,-411661,1636025661,1636025661,291041,0,330282,315044,449009,206155,252693,332524,-56661,-411653,1636025660.8541837,1636025661,291042,0,330284,315058,449002,206168,252691,332521,-56659,-411657,1636025660.8584971,1636025661,291043,0,330257,315052,448992,206173,252699,332526,-56658,-411664,1636025660.858507,1636025661,291044,0,330278,315094,449023,206193,252723,332543,-56652,-411651,1636025660.8621645,1636025661,291045,0,330328,315152,449086,206256,252736,332586,-56617,-411631,1636025660.8621662,1636025661,291046,0,330296,315122,449062,206235,252718,332586,-56605,-411667,1636025660.8661523,1636025661,291047,0,330260,315079,449043,206218,252707,332573,-56635,-411686,1636025660.8661547,1636025661,291048,0,330273,315110,449078,206263,252739,332578,-56637,-411688,1636025660.8702216,1636025661,291049,0,330300,315128,449118,206300,252788,332599,-56612,-411676,1636025660.8702233,1636025661,291050,0,330295,315111,449101,206318,252784,332572,-56617,-411680,1636025660.8762944,1636025661,291051,0,330344,315129,449134,206357,252809,332558,-56593,-411659,1636025660.876297,1636025661,291052,0,330382,315120,449148,206378,252829,332564,-56574,-411652,1636025660.878646,1636025661,291053,0,330399,315126,449165,206402,252838,332558,-56577,-411648,1636025660.878648,1636025661,291054,0,330439,315158,449194,206443,252834,332558,-56559,-411627,1636025660.8825116,1636025661,291055,0,330414,315157,449188,206441,252813,332563,-56566,-411672,1636025660.8825135,1636025661,291056,0,330409,315198,449206,206438,252828,332574,-56572,-411667,1636025660.886326,1636025661,291057,0,330453,315271,449263,206479,252873,332618,-56541,-411650,1636025660.8863285,1636025661,291058,0,330466,315266,449279,206466,252879,332608,-56546,-411671,1636025660.8901677,1636025661,291059,0,330520,315294,449300,206474,252916,332616,-56531,-411664,1636025660.8901744,1636025661,291060,0,330521,315275,449319,206471,252924,332616,-56530,-411669,1636025660.8945367,1636025661,291061,0,330526,315304,449337,206466,252898,332616,-56538,-411684,1636025660.8945389,1636025661,291062,0,330501,315284,449318,206476,252874,332607,-56559,-411698,1636025660.9110014,1636025661,291063,0,330499,315268,449308,206467,252891,332616,-56534,-411707,1636025660.911004,1636025661,291064,0,330534,315309,449329,206480,252898,332634,-56529,-411702,1636025660.9110644,1636025661,291065,0,330582,315355,449369,206500,252903,332636,-56512,-411683,1636025660.9110656,1636025661,291066,0,330568,315318,449327,206516,252896,332637,-56510,-411685,1636025660.9110696,1636025661,291067,0,330527,315281,449294,206509,252880,332632,-56536,-411711,1636025660.9110703,1636025661,291068,0,330521,315254,449307,206467,252876,332641,-56534,-411716,1636025660.9110732,1636025661,291069,0,330549,315246,449342,206448,252881,332651,-56536,-411714,1636025660.911074,1636025661,291070,0,330583,315253,449364,206449,252880,332656,-56521,-411702,1636025660.9148233,1636025661,291071,0,330594,315261,449388,206448,252898,332673,-56506,-411726,1636025660.914826,1636025661,291072,0,330703,315398,449524,206581,253014,332777,-56465,-411717,1636025660.918168,1636025660.971377,301073,0,330718,315410,449538,206581,253029,332784,-56429,-411649,1636025660.9181695,1636025660.971377,301074,0,330700,315364,449485,206551,252988,332753,-56422,-411660,1636025660.9225178,1636025660.971377,301075,0,330745,315401,449534,206573,253025,332781,-56436,-411674,1636025660.922522,1636025660.971377,301076,0,330776,315412,449547,206573,253036,332782,-56451,-411677,1636025660.9262707,1636025660.971377,301077,0,330782,315384,449528,206554,253018,332777,-56465,-411702,1636025660.9262881,1636025660.971377,301078,0,330752,315363,449522,206541,253006,332771,-56492,-411727,1636025660.9305131,1636025660.971377,301079,0,330778,315402,449573,206573,253036,332768,-56475,-411724,1636025660.9305153,1636025660.971377,301080,0,330761,315376,449542,206579,253050,332756,-56492,-411742,1636025660.9342723,1636025660.971377,301081,0,330747,315375,449557,206591,253075,332787,-56495,-411732,1636025660.9342744,1636025660.971377,301082,0,330756,315381,449599,206605,253096,332813,-56478,-411724,1636025660.940225,1636025660.971377,301083,0,330759,315374,449593,206624,253103,332828,-56454,-411720,1636025660.9402268,1636025660.971377,301084,0,330766,315394,449611,206624,253098,332826,-56449,-411717,1636025660.9422884,1636025660.971377,301085,0,330771,315427,449660,206618,253089,332820,-56453,-411689,1636025660.9422908,1636025660.971377,301086,0,330763,315426,449669,206604,253110,332810,-56457,-411684,1636025660.946522,1636025660.971377,301087,0,330785,315439,449679,206599,253143,332859,-56437,-411691,1636025660.946524,1636025660.971377,301088,0,330834,315501,449749,206650,253169,332887,-56406,-411682,1636025660.9507732,1636025660.971377,301089,0,330840,315484,449766,206664,253154,332877,-56409,-411699,1636025660.9507763,1636025660.971377,301090,0,330829,315436,449728,206649,253129,332871,-56439,-411715,1636025660.954354,1636025660.971377,301091,0,330798,315427,449699,206627,253098,332859,-56454,-411731,1636025660.9543562,1636025660.971377,301092,0,330839,315460,449752,206661,253128,332886,-56419,-411689,1636025660.9590003,1636025660.971377,301093,0,330863,315469,449773,206696,253141,332905,-56407,-411685,1636025660.9590037,1636025660.971377,301094,0,330911,315510,449816,206746,253183,332923,-56385,-411658,1636025660.9635296,1636025660.971377,301095,0,330920,315539,449814,206743,253220,332934,-56364,-411677,1636025660.9635313,1636025660.971377,301096,0,330916,315571,449819,206759,253254,332934,-56350,-411671,1636025660.966228,1636025660.971377,301097,0,330885,315562,449797,206742,253263,332920,-56374,-411674,1636025660.9662292,1636025660.971377,301098,0,330888,315544,449796,206751,253273,332936,-56383,-411674,1636025660.9702284,1636025660.971377,301099,0,330915,315578,449818,206775,253303,332974,-56372,-411671,1636025660.9702294,1636025660.971377,301100,0,330908,315608,449807,206759,253299,332973,-56409,-411689,1636025660.9742029,1636025660.971377,301101,0,330906,315599,449784,206732,253269,332961,-56447,-411719,1636025660.9742067,1636025660.971377,301102,0,330920,315643,449809,206724,253325,332983,-56391,-411711,1636025660.9841013,1636025661.049286,311103,0,330973,315715,449866,206766,253381,333014,-56372,-411681,1636025660.9841015,1636025661.049286,311104,0,330961,315718,449870,206776,253394,333012,-56377,-411673,1636025660.9862661,1636025661.049286,311105,0,330972,315759,449891,206817,253416,333023,-56350,-411641,1636025660.9862704,1636025661.049286,311106,0,330974,315791,449892,206827,253414,333019,-56327,-411636,1636025660.9903016,1636025661.049286,311107,0,331006,315813,449916,206859,253441,333057,-56302,-411627,1636025660.9903052,1636025661.049286,311108,0,331016,315820,449917,206867,253474,333074,-56282,-411601,1636025660.9966593,1636025661.049286,311109,0,331034,315828,449906,206865,253461,333069,-56301,-411625,1636025660.9966793,1636025661.049286,311110,0,331051,315872,449948,206904,253505,333096,-56294,-411619,1636025660.9990623,1636025661.049286,311111,0,331003,315872,449970,206902,253501,333097,-56280,-411627,1636025660.9990647,1636025661.049286,311112,0,331015,315897,449986,206939,253488,333089,-56266,-411628,1636025661.0025356,1636025661.049286,311113,0,331082,315952,450014,206969,253540,333111,-56234,-411587,1636025661.002538,1636025661.049286,311114,0,331078,315936,449998,206946,253534,333108,-56252,-411621,1636025661.0070736,1636025661.049286,311115,0,331028,315904,449974,206906,253483,333076,-56285,-411669,1636025661.0070755,1636025661.049286,311116,0,331064,315912,450014,206921,253479,333098,-56274,-411651,1636025661.0105524,1636025661.049286,311117,0,331080,315891,450008,206924,253478,333119,-56270,-411619,1636025661.0105548,1636025661.049286,311118,0,331085,315874,450014,206925,253459,333103,-56263,-411603,1636025661.014738,1636025661.049286,311119,0,331111,315906,450056,206969,253468,333126,-56266,-411636,1636025661.0147405,1636025661.049286,311120,0,331109,315913,450075,206998,253486,333166,-56262,-411643,1636025661.0195065,1636025661.049286,311121,0,331074,315889,450092,207003,253498,333161,-56251,-411648,1636025661.019519,1636025661.049286,311122,0,331059,315871,450122,206983,253483,333143,-56257,-411654,1636025661.0239673,1636025661.049286,311123,0,331074,315905,450179,206991,253489,333149,-56244,-411638,1636025661.0239701,1636025661.049286,311124,0,331087,315924,450200,206988,253497,333145,-56251,-411667,1636025661.026535,1636025661.049286,311125,0,331110,315941,450219,207014,253511,333155,-56228,-411652,1636025661.0265372,1636025661.049286,311126,0,331084,315937,450235,207014,253493,333135,-56227,-411651,1636025661.0322833,1636025661.049286,311127,0,331111,315936,450240,207030,253511,333166,-56196,-411661,1636025661.0322852,1636025661.049286,311128,0,331096,315878,450237,207022,253530,333181,-56209,-411684,1636025661.037007,1636025661.049286,311129,0,331066,315838,450191,206994,253529,333166,-56221,-411699,1636025661.037011,1636025661.049286,311130,0,331100,315865,450211,207013,253546,333157,-56220,-411666,1636025661.0387657,1636025661.049286,311131,0,331134,315895,450226,207044,253561,333161,-56221,-411681,1636025661.0387669,1636025661.049286,311132,0,331143,315918,450218,207054,253574,333176,-56207,-411672,1636025661.0422096,1636025661.049286,311133,0,331154,315935,450229,207051,253579,333179,-56221,-411672,1636025661.042212,1636025661.049286,311134,0,331170,315970,450251,207080,253631,333224,-56215,-411667,1636025661.046183,1636025661.049286,311135,0,331169,315993,450253,207104,253671,333234,-56216,-411682,1636025661.0461848,1636025661.049286,311136,0,331160,315989,450249,207106,253661,333242,-56220,-411697,1636025661.050142,1636025661.049286,311137,0,331211,316020,450271,207153,253699,333296,-56161,-411674,1636025661.0501432,1636025661.049286,311138,0,331236,316018,450255,207132,253696,333313,-56181,-411695,1636025661.054202,1636025661.049286,311139,0,331235,316032,450233,207096,253681,333319,-56206,-411711,1636025661.0542052,1636025661.049286,311140,0,331245,316038,450256,207094,253683,333325,-56216,-411708,1636025661.0586965,1636025661.111068,321141,0,331268,316067,450281,207125,253703,333344,-56209,-411687,1636025661.0586991,1636025661.111068,321142,0,331278,316084,450259,207147,253709,333349,-56234,-411693,1636025661.0626433,1636025661.111068,321143,0,331257,316087,450253,207125,253679,333331,-56266,-411729,1636025661.0626452,1636025661.111068,321144,0,331298,316120,450299,207156,253698,333368,-56234,-411711,1636025661.068332,1636025661.111068,321145,0,331379,316176,450364,207222,253739,333418,-56200,-411667,1636025661.068334,1636025661.111068,321146,0,331403,316171,450392,207229,253734,333419,-56201,-411698,1636025661.0706904,1636025661.111068,321147,0,331408,316166,450389,207229,253736,333426,-56205,-411682,1636025661.0706923,1636025661.111068,321148,0,331429,316203,450397,207254,253747,333464,-56191,-411636,1636025661.0741847,1636025661.111068,321149,0,331434,316178,450408,207248,253749,333459,-56206,-411671,1636025661.0741868,1636025661.111068,321150,0,331436,316147,450406,207232,253752,333444,-56207,-411689,1636025661.0787091,1636025661.111068,321151,0,331464,316159,450422,207251,253794,333450,-56181,-411688,1636025661.0787113,1636025661.111068,321152,0,331528,316238,450476,207299,253859,333506,-56140,-411656,1636025661.082918,1636025661.111068,321153,0,331524,316246,450468,207312,253874,333541,-56126,-411627,1636025661,1636025661.111068,321154,0,331494,316218,450418,207304,253856,333521,-56156,-411646,1636025661.0867171,1636025661.111068,321155,0,331489,316213,450418,207311,253843,333524,-56149,-411659,1636025661.0867217,1636025661.111068,321156,0,331519,316244,450468,207335,253849,333527,-56151,-411634,1636025661.0903733,1636025661.111068,321157,0,331528,316251,450484,207349,253878,333530,-56171,-411657,1636025661.090378,1636025661.111068,321158,0,331520,316244,450477,207334,253887,333533,-56174,-411666,1636025661.0959487,1636025661.111068,321159,0,331488,316251,450454,207331,253894,333535,-56190,-411664,1636025661.0959508,1636025661.111068,321160,0,331508,316304,450485,207369,253936,333561,-56151,-411661,1636025661.0985096,1636025661.111068,321161,0,331522,316312,450473,207356,253935,333550,-56156,-411683,1636025661.0985131,1636025661.111068,321162,0,331539,316303,450449,207338,253943,333551,-56157,-411680,1636025661.1021223,1636025661.111068,321163,0,331569,316319,450464,207358,253960,333572,-56131,-411674,1636025661.102124,1636025661.111068,321164,0,331583,316317,450496,207362,253960,333593,-56116,-411678,1636025661.1061785,1636025661.111068,321165,0,331598,316356,450511,207407,253979,333606,-56098,-411658,1636025661,1636025661.111068,321166,0,331614,316393,450545,207442,254009,333601,-56103,-411644,1636025661.111802,1636025661.111068,321167,0,331609,316369,450518,207440,253998,333596,-56112,-411662,1636025661.1118052,1636025661.111068,321168,0,331619,316370,450514,207427,253991,333580,-56114,-411696,1636025661.1149647,1636025661.111068,321169,0,331621,316353,450503,207399,253992,333576,-56114,-411709,1636025661.1149669,1636025661.111068,321170,0,331582,316380,450541,207405,253994,333579,-56129,-411720,1636025661.1242743,1636025661.191065,331171,0,331601,316427,450589,207447,254015,333598,-56101,-411691,1636025661.124304,1636025661.191065,331172,0,331576,316366,450553,207411,253988,333573,-56115,-411723,1636025661.1243043,1636025661.191065,331173,0,331573,316319,450546,207416,253995,333578,-56129,-411706,1636025661.1275446,1636025661.191065,331174,0,331632,316370,450630,207485,254029,333613,-56098,-411654,1636025661.1275468,1636025661.191065,331175,0,331636,316355,450643,207479,253995,333600,-56111,-411686,1636025661.1301727,1636025661.191065,331176,0,331628,316339,450634,207468,253995,333604,-56116,-411708,1636025661.1301749,1636025661.191065,331177,0,331600,316326,450604,207459,253984,333584,-56120,-411721,1636025661.1344852,1636025661.191065,331178,0,331569,316319,450598,207481,253968,333561,-56160,-411748,1636025661,1636025661.191065,331179,0,331565,316339,450623,207501,253983,333551,-56168,-411737,1636025661.138301,