Sample_num,Task_number,EMG1,EMG2,EMG3,EMG4,EMG5,EMG6,EMG7,EMG8,Timestamp,Video_timestamp,Angle_sample
0,0,152535,321118,527224,449539,479506,592676,13958,-358323,1636551622.0082877,1636551622.045051,0
1,0,152220,320776,526947,449311,479429,592739,13164,-358740,1636551622.0082924,1636551622.045051,0
2,0,151763,320229,526414,448781,479023,592388,13253,-359093,1636551622.0110593,1636551622.045051,0
3,0,152023,320498,526680,448959,479091,592158,13968,-358669,1636551622.011063,1636551622.045051,0
4,0,152059,320549,526747,449067,479238,592445,13692,-358684,1636551622.0150812,1636551622.045051,0
5,0,152154,320644,526856,449169,479341,592594,13557,-358664,1636551622.0150838,1636551622.045051,0
6,0,152341,320851,527060,449395,479608,593089,13224,-358657,1636551622.018805,1636551622.045051,0
7,0,152183,320682,526878,449219,479369,592419,13867,-358676,1636551622.0188074,1636551622.045051,0
8,0,152128,320611,526764,449088,479241,592160,13906,-358637,1636551622.0232372,1636551622.045051,0
9,0,152246,320716,526863,449221,479464,592561,13820,-358565,1636551622,1636551622.045051,0
10,0,152344,320831,527131,449590,479926,593333,12795,-358596,1636551622,1636551622.045051,0
11,0,152331,320822,526954,449201,479211,592232,13586,-358716,1636551622.0267124,1636551622.045051,0
12,0,152088,320586,526708,448988,479008,591983,14363,-358744,1636551622.0308552,1636551622.045051,0
13,0,152169,320689,526858,449270,479501,592876,13469,-358752,1636551622.0308585,1636551622.045051,0
14,0,152140,320648,526761,449163,479363,592761,13934,-358704,1636551622.0385132,1636551622.045051,0
15,0,152129,320548,526721,449199,479468,592835,14121,-358622,1636551622.0385156,1636551622.045051,0
16,0,152766,321157,527356,449865,480078,593424,14429,-358071,1636551622.0388076,1636551622.045051,0
17,0,153401,321891,527925,450251,480319,593774,14427,-357973,1636551622.038812,1636551622.045051,0
18,0,152578,321141,527288,449647,479738,592878,13474,-358854,1636551622.0513427,1636551622.045051,0
19,0,151406,319899,526101,448541,478800,591570,12767,-359559,1636551622.051348,1636551622.045051,0
20,0,151691,320116,526383,448898,479236,592249,13788,-359022,1636551622.0513666,1636551622.045051,0
21,0,151730,320128,526319,448753,479073,592449,13576,-358982,1636551622.0513673,1636551622.045051,0
22,0,152114,320519,526605,448905,479132,592621,13369,-358786,1636551622.051372,1636551622.045051,0
23,0,152374,320881,526944,449169,479256,592515,13474,-358695,1636551622.0513728,1636551622.045051,0
24,0,152281,320833,526951,449221,479261,592228,13776,-358671,1636551622.0548303,1636551622.045051,0
25,0,152224,320706,526852,449209,479385,592481,13733,-358739,1636551622.0548348,1636551622.045051,0
26,0,152224,320706,526852,449209,479385,592481,13733,-358739,1636551622.0548348,1636551622.203735,1
27,0,152265,320704,526807,449184,479456,592695,13739,-358777,1636551622.058663,1636551622.203735,1
28,0,152318,320776,526897,449243,479494,592693,13794,-358724,1636551622.0586646,1636551622.203735,1
29,0,152276,320761,526949,449317,479574,592728,13786,-358733,1636551622.0698373,1636551622.203735,1
30,0,152202,320597,526761,449143,479478,592772,13746,-358789,1636551622.0698397,1636551622.203735,1
31,0,152272,320663,526778,449167,479464,592793,13551,-358699,1636551622.0698519,1636551622.203735,1
32,0,152213,320798,527054,449509,479803,593184,13790,-358856,1636551622.069852,1636551622.203735,1
33,0,152753,321214,527259,449579,479701,592806,14509,-358374,1636551622.0766475,1636551622.203735,1
34,0,152894,321276,527231,449543,479709,592919,14078,-358427,1636551622.076651,1636551622.203735,1
35,0,152339,320753,526839,449238,479472,592731,13443,-358921,1636551622.0766695,1636551622.203735,1
36,0,152131,320502,526558,448987,479298,592817,13094,-358981,1636551622,1636551622.203735,1
37,0,151965,320359,526509,449021,479381,592880,13798,-358967,1636551622.0787792,1636551622.203735,1
38,0,152078,320495,526691,449164,479356,592486,14041,-358787,1636551622.0787833,1636551622.203735,1
39,0,152281,320748,526894,449264,479338,592663,13857,-358782,1636551622.0826232,1636551622.203735,1
40,0,152316,320771,526934,449298,479398,592788,13889,-358775,1636551622.0826254,1636551622.203735,1
41,0,152375,320809,527009,449385,479490,592875,13946,-358730,1636551622.0866094,1636551622.203735,1
42,0,152441,320882,527034,449379,479403,592789,13859,-358764,1636551622.0866125,1636551622.203735,1
43,0,152444,320865,527013,449411,479441,592827,13854,-358751,1636551622.0906305,1636551622.203735,1
44,0,152366,320767,526934,449394,479449,592787,13651,-358891,1636551622.090633,1636551622.203735,1
45,0,152365,320734,526918,449383,479438,592717,13614,-358947,1636551622.1008155,1636551622.203735,1
46,0,152519,320888,527057,449509,479539,592933,14138,-358638,1636551622.1008253,1636551622.203735,1
47,0,152806,321201,527308,449741,479738,593202,14477,-358301,1636551622,1636551622.203735,1
48,0,152681,321031,527098,449605,479691,593301,13514,-358631,1636551622.103862,1636551622.203735,1
49,0,152262,320582,526659,449225,479231,592794,13479,-359045,1636551622.1038704,1636551622.203735,1
50,0,152372,320669,526729,449259,479142,592431,13896,-358776,1636551622.1038709,1636551622.203735,1
51,0,152365,320785,526942,449566,479591,593235,13693,-358869,1636551622.1085227,1636551622.203735,1
52,0,152242,320615,526741,449354,479304,592776,14556,-358807,1636551622.1085246,1636551622.203735,1
53,0,152288,320653,526754,449364,479288,592827,14311,-358816,1636551622,1636551622.203735,1
54,0,152413,320777,526923,449557,479477,592965,14205,-358742,1636551622.1105015,1636551622.203735,1
55,0,152469,320798,526936,449605,479575,592994,13829,-358729,1636551622.1148045,1636551622.203735,1
56,0,152269,320586,526728,449394,479371,592816,13708,-358945,1636551622.1148086,1636551622.203735,1
57,0,152414,320784,526871,449484,479371,592815,13862,-358814,1636551622.1185143,1636551622.203735,1
58,0,152555,320940,527060,449662,479501,592977,14018,-358616,1636551622.1185176,1636551622.203735,1
59,0,152624,321032,527119,449664,479484,592965,13953,-358770,1636551622.1226635,1636551622.203735,1
60,0,152463,320825,526886,449409,479276,592899,13575,-359151,1636551622.122666,1636551622.203735,1
61,0,152416,320852,527007,449606,479567,593294,13452,-359037,1636551622.126686,1636551622.203735,1
62,0,152143,320513,526648,449235,479157,592714,14106,-359038,1636551622.1266885,1636551622.203735,1
63,0,152208,320636,526827,449417,479359,592845,14079,-358973,1636551622.1306236,1636551622.203735,1
64,0,152256,320691,526906,449523,479571,593056,14167,-358898,1636551622.1306255,1636551622.203735,1
65,0,152198,320545,526819,449551,479725,593158,14096,-358986,1636551622.134554,1636551622.203735,1
66,0,152363,320686,526968,449696,479781,593273,13743,-359042,1636551622.1345563,1636551622.203735,1
67,0,152629,321146,527195,449663,479503,593046,13396,-359114,1636551622.138564,1636551622.203735,1
68,0,152292,320817,526943,449433,479266,592815,13869,-359062,1636551622.1385715,1636551622.203735,1
69,0,152185,320604,526783,449366,479300,592822,13994,-358941,1636551622,1636551622.203735,1
70,0,152529,320983,527158,449876,479876,593476,13938,-358675,1636551622.1427035,1636551622.203735,1
71,0,152966,321356,527453,450176,480103,593549,14851,-358190,1636551622.147208,1636551622.203735,1
72,0,152904,321331,527266,449898,479776,593268,14314,-358721,1636551622.147214,1636551622.203735,1
73,0,152218,320659,526642,449341,479293,592981,13409,-359403,1636551622.1520543,1636551622.203735,1
74,0,152057,320473,526468,449159,478977,592294,13610,-359354,1636551622,1636551622.203735,1
75,0,152013,320423,526434,449126,479026,592506,13704,-359279,1636551622.1546667,1636551622.203735,1
76,0,152089,320481,526515,449199,479163,592755,13816,-359164,1636551622.1546712,1636551622.203735,1
77,0,152239,320633,526749,449479,479549,593283,13089,-359253,1636551622.1585188,1636551622.203735,1
78,0,152360,320753,526819,449464,479466,592888,13324,-359259,1636551622.158524,1636551622.203735,1
79,0,152246,320644,526685,449173,479097,592443,14346,-358999,1636551622.1626744,1636551622.203735,1
80,0,152488,320839,526866,449409,479401,593033,14569,-358543,1636551622.1626763,1636551622.203735,1
81,0,152867,321254,527268,449821,479799,593454,14513,-358914,1636551622,1636551622.203735,1
82,0,152251,320669,526859,449480,479488,593174,14173,-359175,1636551622.168282,1636551622.203735,1
83,0,152298,320643,526726,449306,479351,593314,14099,-359074,1636551622.1714883,1636551622.203735,1
84,0,152444,320796,526845,449454,479561,593471,13852,-359077,1636551622,1636551622.203735,1
85,0,152720,321071,527143,449767,479824,592873,14271,-358896,1636551622.174506,1636551622.203735,1
86,0,152790,321106,527123,449712,479769,593039,14143,-358967,1636551622.1745086,1636551622.203735,1
87,0,152047,320328,526368,448926,479037,592658,13791,-359403,1636551622.1788125,1636551622.203735,1
88,0,152146,320454,526582,449141,479235,592849,14159,-359086,1636551622.1788156,1636551622.203735,1
89,0,152467,320804,526879,449410,479576,593558,13888,-359092,1636551622.1829867,1636551622.203735,1
90,0,152531,320851,526863,449367,479391,592966,14172,-359051,1636551622.182995,1636551622.203735,1
91,0,152396,320759,526834,449395,479420,592806,14249,-359023,1636551622.1866832,1636551622.203735,1
92,0,152402,320769,526837,449419,479446,592964,14021,-359134,1636551622.1866868,1636551622.203735,1
93,0,152333,320711,526808,449454,479504,593133,14164,-359186,1636551622.1905284,1636551622.203735,1
94,0,152656,320961,526924,449521,479644,593525,13721,-359079,1636551622.1905303,1636551622.203735,1
95,0,152701,320951,526829,449363,479371,593032,14064,-359078,1636551622.1946647,1636551622.203735,1
96,0,152233,320645,526742,449389,479396,592783,14499,-359197,1636551622.1946685,1636551622.203735,1
97,0,152269,320625,526711,449383,479468,593122,14392,-359142,1636551622.2006552,1636551622.203735,1
98,0,152393,320699,526754,449403,479416,593073,14168,-359132,1636551622.2006645,1636551622.203735,1
99,0,152396,320734,526840,449517,479649,593486,13793,-359244,1636551622.2026784,1636551622.203735,1
100,0,152546,320876,526877,449389,479429,593143,14613,-359150,1636551622.2026803,1636551622.203735,1
101,0,152371,320753,526903,449469,479536,592958,14518,-359132,1636551622.206581,1636551622.203735,1
102,0,152032,320409,526713,449383,479654,593289,14458,-359279,1636551622.2065833,1636551622.203735,1
103,0,152114,320451,526709,449341,479599,593318,14423,-359262,1636551622.210823,1636551622.203735,1
104,0,152331,320714,526910,449356,479440,593122,14228,-359273,1636551622.2108257,1636551622.203735,1
105,0,152672,321066,527279,449612,479668,593197,13903,-359156,1636551622.2201164,1636551622.277311,2
106,0,152536,321014,527391,449852,480001,593629,14078,-359312,1636551622.2201238,1636551622.277311,2
107,0,152481,320867,527151,449569,479730,593471,14579,-359244,1636551622.2256353,1636551622.277311,2
108,0,152435,320795,526939,449238,479334,593146,14516,-359242,1636551622.2256377,1636551622.277311,2
109,0,152415,320844,527038,449332,479390,593149,14911,-358924,1636551622.2306588,1636551622.277311,2
110,0,152496,321016,527149,449378,479408,592992,14330,-359112,1636551622,1636551622.277311,2
111,0,152357,320922,527032,449286,479409,593039,14141,-359312,1636551622.230667,1636551622.277311,2
112,0,152417,320871,527183,449597,479896,593667,14920,-358937,1636551622.2306676,1636551622.277311,2
113,0,152849,321266,527491,449731,479868,593513,14973,-358671,1636551622.242848,1636551622.277311,2
114,0,153043,321506,527701,449896,480011,593639,14801,-358749,1636551622,1636551622.277311,2
115,0,152602,321075,527344,449575,479781,593657,13881,-359342,1636551622.2428634,1636551622.277311,2
116,0,151993,320479,526736,448924,479118,592997,13554,-359908,1636551622.242864,1636551622.277311,2
117,0,151663,320134,526379,448551,478735,592446,13966,-359877,1636551622.2428668,1636551622.277311,2
118,0,151998,320446,526799,449129,479480,593343,14113,-359506,1636551622.2428672,1636551622.277311,2
119,0,152218,320652,526907,449207,479496,593373,14177,-359466,1636551622.246464,1636551622.277311,2
120,0,152354,320856,526898,449004,478975,592476,14011,-359417,1636551622.246466,1636551622.277311,2
121,0,152347,320853,526929,449130,479173,592858,14109,-359398,1636551622.2519455,1636551622.277311,2
122,0,152361,320926,527030,449288,479319,592976,14208,-359368,1636551622.2519495,1636551622.277311,2
123,0,152476,321085,527214,449507,479569,593329,14438,-359265,1636551622.256477,1636551622.277311,2
124,0,152598,321207,527333,449655,479751,593547,14585,-359224,1636551622.2564795,1636551622.277311,2
125,0,152303,320922,527078,449496,479726,593482,14285,-359561,1636551622.2588456,1636551622.277311,2
126,0,151925,320621,526802,449231,479506,593439,13596,-359724,1636551622.2588477,1636551622.277311,2
127,0,152258,320834,526903,449264,479464,593364,13266,-359451,1636551622.2626967,1636551622.277311,2
128,0,152464,321029,526988,449244,479293,592966,15030,-359242,1636551622.2626998,1636551622.277311,2
129,0,152740,321402,527365,449543,479457,592881,15125,-358988,1636551622.2672207,1636551622.277311,2
130,0,152624,321343,527305,449559,479509,593151,14319,-359224,1636551622,1636551622.277311,2
131,0,152199,320921,526889,449265,479403,593447,13461,-359711,1636551622.2704573,1636551622.277311,2
132,0,152028,320746,526716,449111,479189,592977,13918,-359856,1636551622.2704597,1636551622.277311,2
133,0,152145,320879,526826,449189,479195,592724,14251,-359682,1636551622.2744408,1636551622.277311,2
134,0,152225,320962,526904,449273,479287,593006,14444,-359482,1636551622.2744417,1636551622.277311,2
135,0,152531,321234,527128,449561,479596,593410,14853,-359112,1636551622.2790804,1636551622.277311,2
136,0,152828,321529,527365,449811,479833,593628,14665,-359117,1636551622.2790844,1636551622.277311,2
137,0,152573,321306,527160,449631,479608,593343,14501,-359454,1636551622.2836523,1636551622.277311,2
138,0,152299,321011,526869,449351,479355,593157,14089,-359530,1636551622.2836664,1636551622.277311,2
139,0,152311,321068,526944,449437,479491,593358,13959,-359423,1636551622.2866542,1636551622.277311,2
140,0,152205,320980,526928,449464,479491,593136,14803,-359459,1636551622.2866597,1636551622.277311,2
141,0,152573,321306,527160,449631,479608,593343,14501,-359454,1636551622.2836523,1636551622.346181,3
142,0,152299,321011,526869,449351,479355,593157,14089,-359530,1636551622.2836664,1636551622.346181,3
143,0,152311,321068,526944,449437,479491,593358,13959,-359423,1636551622.2866542,1636551622.346181,3
144,0,152205,320980,526928,449464,479491,593136,14803,-359459,1636551622.2866597,1636551622.346181,3
145,0,152243,321028,526979,449553,479584,593225,14163,-359681,1636551622.2905703,1636551622.346181,3
146,0,152076,320866,526824,449429,479504,593230,13976,-359876,1636551622.2905731,1636551622.346181,3
147,0,151937,320656,526549,449135,479229,593131,14376,-359671,1636551622.2944653,1636551622.346181,3
148,0,152526,321213,527036,449556,479584,593534,14956,-359026,1636551622.2944703,1636551622.346181,3
149,0,152458,321241,527198,449787,479839,593843,14593,-359236,1636551622.2986257,1636551622.346181,3
150,0,152522,321351,527186,449631,479570,593639,14356,-359430,1636551622.2986305,1636551622.346181,3
151,0,152567,321343,527265,449771,479772,593319,14429,-359321,1636551622.3028102,1636551622.346181,3
152,0,152531,321328,527289,449804,479808,593254,14191,-359348,1636551622.302814,1636551622.346181,3
153,0,152701,321544,527534,450018,479934,593641,13910,-359390,1636551622.3064733,1636551622.346181,3
154,0,152499,321401,527399,449811,479630,593203,14333,-359587,1636551622.306476,1636551622.346181,3
155,0,152526,321371,527322,449738,479528,593109,14154,-359602,1636551622.3132029,1636551622.346181,3
156,0,152262,321112,527052,449509,479387,592983,14440,-359571,1636551622.3132052,1636551622.346181,3
157,0,152504,321364,527266,449705,479582,593303,14731,-359278,1636551622.314408,1636551622.346181,3
158,0,152229,321071,527066,449561,479491,593448,14338,-359572,1636551622,1636551622.346181,3
159,0,152249,321073,527081,449619,479648,593703,14498,-359571,1636551622.3250573,1636551622.346181,3
160,0,152204,321035,527160,449707,479633,593554,14383,-359692,1636551622.3250592,1636551622.346181,3
161,0,152332,321121,527140,449555,479298,593108,14119,-359575,1636551622.325071,1636551622.346181,3
162,0,152361,321159,527138,449558,479369,593283,14255,-359587,1636551622.3250716,1636551622.346181,3
163,0,152333,321144,527096,449500,479326,593215,14216,-359534,1636551622.326534,1636551622.346181,3
164,0,152283,321104,527073,449531,479416,593306,14316,-359387,1636551622.326536,1636551622.346181,3
165,0,152437,321273,527236,449733,479647,593568,14558,-359391,1636551622.330593,1636551622.346181,3
166,0,152495,321353,527282,449762,479649,593581,14461,-359892,1636551622.3305943,1636551622.346181,3
167,0,152113,320951,526886,449423,479339,593273,14033,-359948,1636551622.334859,1636551622.346181,3
168,0,152031,320882,526965,449589,479559,593512,14038,-359859,1636551622.3348672,1636551622.346181,3
169,0,152473,321353,527325,449746,479573,593574,13731,-359708,1636551622.3388228,1636551622.346181,3
170,0,152518,321369,527251,449563,479258,592994,14384,-359627,1636551622.3388247,1636551622.346181,3
171,0,152354,321211,527186,449589,479388,593106,14308,-359677,1636551622.3612764,1636551622.346181,3
172,0,152317,321205,527171,449544,479394,593260,14079,-359769,1636551622.3612788,1636551622.346181,3
173,0,152509,321469,527415,449795,479822,594292,13794,-359764,1636551622.3612912,1636551622.346181,3
174,0,152866,321772,527829,450261,480363,594870,14553,-359367,1636551622.3612916,1636551622.346181,3
175,0,153406,322337,528314,450618,480373,593706,15954,-358470,1636551622.3612945,1636551622.346181,3
176,0,152548,321486,527432,449705,479566,593453,14444,-359477,1636551622.3612947,1636551622.346181,3
177,0,151688,320584,526467,448638,478494,592664,12936,-360733,1636551622.3612976,1636551622.346181,3
178,0,151613,320501,526466,448693,478664,592894,13224,-360688,1636551622.3612978,1636551622.346181,3
179,0,152256,321142,527104,449316,479104,592766,14223,-359867,1636551622.3613005,1636551622.346181,3
180,0,152313,321186,527144,449415,479288,593191,14141,-359857,1636551622.3613007,1636551622.346181,3
181,0,152361,321236,527204,449491,479363,593293,14066,-359832,1636551622.3624396,1636551622.346181,3
182,0,152468,321428,527451,449780,479686,593657,14103,-359925,1636551622.362442,1636551622.346181,3
183,0,152294,321203,527141,449486,479376,593438,14249,-359785,1636551622.370386,1636551622.424291,4
184,0,152254,321137,527079,449441,479381,593474,14216,-359850,1636551622.374674,1636551622.424291,4
185,0,152204,321039,527043,449457,479534,593727,13946,-359891,1636551622.3746762,1636551622.424291,4
186,0,152148,320951,527024,449516,479661,593828,13908,-359934,1636551622.3792045,1636551622.424291,4
187,0,152160,320982,527061,449497,479533,593512,14365,-359876,1636551622.379207,1636551622.424291,4
188,0,152388,321286,527297,449588,479436,593509,13521,-359902,1636551622.3824215,1636551622.424291,4
189,0,152744,321753,527571,449563,479055,592836,14727,-359789,1636551622.382424,1636551622.424291,4
190,0,152614,321567,527491,449614,479254,593172,14328,-359864,1636551622,1636551622.424291,4
191,0,152553,321423,527328,449456,479288,593308,14174,-359935,1636551622.3863723,1636551622.424291,4
192,0,152508,321409,527419,449535,479306,593078,14083,-359900,1636551622.390586,1636551622.424291,4
193,0,152225,321159,527320,449544,479436,593514,14138,-360043,1636551622.390588,1636551622.424291,4
194,0,152334,321238,527344,449536,479404,593610,14171,-359989,1636551622.3943653,1636551622.424291,4
195,0,152498,321398,527376,449481,479263,593392,14106,-359951,1636551622.3943691,1636551622.424291,4
196,0,152529,321386,527343,449479,479261,593356,14089,-359941,1636551622.3993306,1636551622.424291,4
197,0,152315,321246,527397,449699,479551,593564,14186,-359992,1636551622.3993328,1636551622.424291,4
198,0,152549,321497,527549,449777,479587,593614,14238,-359891,1636551622.4084074,1636551622.424291,4
199,0,152724,321618,527503,449661,479485,593569,14098,-360032,1636551622.4084096,1636551622.424291,4
200,0,152911,321749,527479,449530,479274,593444,13674,-359964,1636551622.4084225,1636551622.424291,4
201,0,152660,321529,527534,449736,479493,593525,13764,-359919,1636551622.4084232,1636551622.424291,4
202,0,152066,321069,527251,449545,479384,593400,14514,-360210,1636551622.410352,1636551622.424291,4
203,0,152429,321478,527550,449746,479487,593536,14004,-360203,1636551622.4103563,1636551622.424291,4
204,0,152545,321553,527589,449786,479514,593515,13908,-360151,1636551622.4144592,1636551622.424291,4
205,0,152229,321148,527198,449441,479237,593252,14100,-360165,1636551622.4144657,1636551622.424291,4
206,0,152404,321300,527335,449546,479333,593379,14348,-359887,1636551622.4188223,1636551622.424291,4
207,0,152683,321591,527589,449743,479529,593814,13744,-359919,1636551622.4188254,1636551622.424291,4
208,0,152614,321516,527519,449624,479336,593466,14116,-360029,1636551622.4224775,1636551622.424291,4
209,0,152548,321423,527409,449571,479261,593142,14480,-359914,1636551622.4224825,1636551622.424291,4
210,0,152605,321471,527421,449708,479621,593798,14514,-359880,1636551622.4295187,1636551622.424291,4
211,0,152480,321371,527386,449756,479774,594171,14567,-359988,1636551622.4295208,1636551622.424291,4
212,0,152473,321373,527458,449861,479869,594373,14378,-360030,1636551622.4301968,1636551622.424291,4
213,0,152931,321891,527764,449993,479756,594233,13625,-360003,1636551622.430198,1636551622.424291,4
214,0,152538,321536,527456,449808,479539,593748,13908,-360129,1636551622.4382176,1636551622.493326,5
215,0,152613,321544,527534,449971,479723,593884,14434,-360002,1636551622,1636551622.493326,5
216,0,152916,321713,527540,449883,479448,593418,14625,-359779,1636551622.4422245,1636551622.493326,5
217,0,152934,321798,527623,449990,479548,593668,14217,-359913,1636551622.4422264,1636551622.493326,5
218,0,152909,321781,527638,450069,479688,593813,14224,-359904,1636551622.4482045,1636551622.493326,5
219,0,152630,321467,527357,449835,479472,593629,13923,-360136,1636551622,1636551622.493326,5
220,0,152524,321339,527243,449741,479366,593542,13925,-360230,1636551622.451395,1636551622.493326,5
221,0,153294,322129,528056,450614,480246,594581,14600,-359545,1636551622.4513972,1636551622.493326,5
222,0,153334,322208,528185,450761,480357,594576,14498,-359621,1636551622.454316,1636551622.493326,5
223,0,152474,321259,527308,449963,479739,594140,13291,-360552,1636551622.4543192,1636551622.493326,5
224,0,151894,320515,526488,449044,478752,592874,13966,-360755,1636551622.4586673,1636551622.493326,5
225,0,152421,321191,527139,449543,479033,592824,14039,-360238,1636551622.4586694,1636551622.493326,5
226,0,152608,321404,527418,449889,479496,593557,13952,-360251,1636551622.4627347,1636551622.493326,5
227,0,152916,321651,527652,450119,479708,593774,14249,-360037,1636551622.4627385,1636551622.493326,5
228,0,153071,321930,527846,450173,479711,593984,14483,-359902,1636551622.4666383,1636551622.493326,5
229,0,152848,321728,527593,449851,479391,593689,14104,-360184,1636551622.4666407,1636551622.493326,5
230,0,152513,321330,527253,449626,479278,593546,13939,-360261,1636551622.4703317,1636551622.493326,5
231,0,152599,321369,527293,449754,479482,593782,14185,-359911,1636551622.4703336,1636551622.493326,5
232,0,152804,321583,527485,449933,479621,593883,14177,-359827,1636551622.474687,1636551622.493326,5
233,0,152798,321676,527566,449951,479568,593675,13557,-360588,1636551622.474689,1636551622.493326,5
234,0,152798,321659,527509,449810,479433,593485,13596,-360615,1636551622.4790437,1636551622.493326,5
235,0,152771,321554,527390,449753,479400,593458,14112,-360106,1636551622.4790473,1636551622.493326,5
236,0,152975,321763,527641,450112,479848,594214,14609,-359821,1636551622.4824617,1636551622.493326,5
237,0,152882,321684,527560,450067,479790,594118,14313,-360012,1636551622.4826064,1636551622.493326,5
238,0,152839,321698,527558,450060,479721,593995,14228,-360040,1636551622.486359,1636551622.493326,5
239,0,152926,321743,527458,449973,479674,594069,14253,-360030,1636551622.4863625,1636551622.493326,5
240,0,152973,321833,527646,450188,479900,594165,14336,-359994,1636551622.490318,1636551622.493326,5
241,0,152987,321948,527743,450252,479938,594126,14146,-360159,1636551622.4903207,1636551622.493326,5
242,0,153037,321966,527764,450265,480054,594358,13653,-360161,1636551622.4942365,1636551622.493326,5
243,0,153281,322118,527866,450322,480098,594429,13220,-360141,1636551622,1636551622.493326,5
244,0,152938,321796,527554,450016,479701,593708,14148,-360323,1636551622.4987853,1636551622.493326,5
245,0,152601,321436,527231,449714,479466,593474,14376,-360296,1636551622.4987967,1636551622.493326,5
246,0,152865,321763,527555,449952,479645,594035,13775,-360059,1636551622.5026536,1636551622.493326,5
247,0,153110,322059,527870,450147,479691,593868,14105,-359863,1636551622.5026555,1636551622.493326,5
248,0,152938,321796,527554,450016,479701,593708,14148,-360323,1636551622.4987853,1636551622.546707,6
249,0,152601,321436,527231,449714,479466,593474,14376,-360296,1636551622.4987967,1636551622.546707,6
250,0,152865,321763,527555,449952,479645,594035,13775,-360059,1636551622.5026536,1636551622.546707,6
251,0,153110,322059,527870,450147,479691,593868,14105,-359863,1636551622.5026555,1636551622.546707,6
252,0,152902,321833,527784,450229,480009,594252,14943,-359826,1636551622.506218,1636551622.546707,6
253,0,152536,321453,527435,449919,479787,594069,14758,-360259,1636551622.5062191,1636551622.546707,6
254,0,152498,321433,527346,449726,479449,593764,14045,-360566,1636551622.5102715,1636551622.546707,6
255,0,152800,321856,527709,449928,479475,593733,13972,-360357,1636551622.5102756,1636551622.546707,6
256,0,153132,322199,528062,450276,479833,594019,13959,-360111,1636551622.5155203,1636551622.546707,6
257,0,152968,321962,527844,450143,479869,594083,13999,-360199,1636551622.5155225,1636551622.546707,6
258,0,152950,321925,527769,450061,479803,594056,14053,-360206,1636551622.5182476,1636551622.546707,6
259,0,153101,322007,527751,450018,479701,593943,14001,-360153,1636551622.5182498,1636551622.546707,6
260,0,152989,321954,527744,450091,479794,594128,14091,-360232,1636551622.5224946,1636551622.546707,6
261,0,152844,321863,527696,450101,479865,594225,14168,-360278,1636551622.5224972,1636551622.546707,6
262,0,152946,321996,527794,450184,479893,594186,14206,-360209,1636551622.5261605,1636551622.546707,6
263,0,153048,322103,527873,450292,479999,594303,14324,-360127,1636551622.5261629,1636551622.546707,6
264,0,153331,322437,528131,450498,480154,594464,14542,-359957,1636551622.5301394,1636551622.546707,6
265,0,153066,322268,528066,450561,480297,594736,14032,-360178,1636551622.530141,1636551622.546707,6
266,0,152504,321634,527573,450134,479868,594371,13925,-360536,1636551623,1636551622.546707,6
267,0,153089,322131,527704,449944,479287,593566,14188,-360239,1636551622.534472,1636551622.546707,6
268,0,153030,322102,527759,450106,479595,594144,13719,-360391,1636551622.5385878,1636551622.546707,6
269,0,152781,321793,527501,449889,479374,593662,13958,-360470,1636551622.5385897,1636551622.546707,6
270,0,152866,321882,527581,449983,479461,593820,14014,-360357,1636551622.5421853,1636551622.546707,6
271,0,152944,321951,527689,450139,479646,594106,14029,-360318,1636551622.5421872,1636551622.546707,6
272,0,152956,321968,527725,450181,479695,594133,14068,-360312,1636551623,1636551622.546707,6
273,0,152851,321876,527635,450128,479705,594208,13928,-360396,1636551622.546416,1636551622.546707,6
274,0,152674,321681,527479,450075,479832,594698,13683,-360562,1636551622.5501893,1636551622.546707,6
275,0,153061,322062,527775,450298,479856,594288,14276,-360197,1636551622.5501914,1636551622.546707,6
276,0,153876,322939,528588,451103,480617,595108,14793,-359557,1636551622.5543878,1636551622.546707,6
277,0,153534,322592,528237,450800,480279,594575,14444,-360029,1636551623,1636551622.546707,6
278,0,152681,321733,527352,449906,479405,593816,13579,-360821,1636551622.5581892,1636551622.546707,6
279,0,152285,321200,526830,449393,478921,593497,13651,-360829,1636551622.5581903,1636551622.546707,6
280,0,153248,322239,527673,450068,479473,593911,14131,-360233,1636551622.5623584,1636551622.546707,6
281,0,153351,322346,527766,450183,479658,594080,14076,-360235,1636551622.5623608,1636551622.546707,6
282,0,153291,322269,527726,450214,479773,594866,14179,-360329,1636551622.5703769,1636551622.640474,7
283,0,153463,322487,527960,450418,479850,594029,14537,-360057,1636551622.5703788,1636551622.640474,7
284,0,153215,322263,527928,450547,480175,594328,14490,-360251,1636551622.5760896,1636551622.640474,7
285,0,153016,322037,527589,450129,479725,594259,14146,-360546,1636551622.5760915,1636551622.640474,7
286,0,152951,321964,527376,449811,479296,593846,13947,-360427,1636551622.5875733,1636551622.640474,7
287,0,153284,322304,527716,450152,479630,594286,14284,-360146,1636551622.5875764,1636551622.640474,7
288,0,153298,322351,527804,450279,479799,594616,14325,-360264,1636551622.5875926,1636551622.640474,7
289,0,153136,322161,527583,450089,479733,594686,14131,-360507,1636551622.5875933,1636551622.640474,7
290,0,153103,322209,527745,450320,479951,594728,14157,-360472,1636551622.5875964,1636551622.640474,7
291,0,152961,322008,527564,450123,479706,594450,13992,-360462,1636551622.587597,1636551622.640474,7
292,0,153186,322168,527663,450208,479791,594776,14041,-360404,1636551622.590037,1636551622.640474,7
293,0,153372,322400,527881,450433,479962,594908,13884,-360316,1636551622.5900388,1636551622.640474,7
294,0,153138,322229,527697,450244,479648,594257,14409,-360346,1636551622.5942397,1636551622.640474,7
295,0,153117,322206,527699,450288,479804,594519,14356,-360391,1636551622.5942416,1636551622.640474,7
296,0,153240,322330,527723,450244,479719,594486,14163,-360362,1636551622.5986805,1636551622.640474,7
297,0,153236,322342,527703,450208,479613,594391,14099,-360267,1636551622.5986838,1636551622.640474,7
298,0,153334,322434,527807,450368,479837,594583,14099,-360137,1636551622.602352,1636551622.640474,7
299,0,153505,322650,528003,450568,480128,594864,13936,-360633,1636551622.6023536,1636551622.640474,7
300,0,153520,322538,527801,450332,479910,594772,13940,-360719,1636551622.6064804,1636551622.640474,7
301,0,153540,322448,527586,449998,479439,594337,13815,-360436,1636551622.6064825,1636551622.640474,7
302,0,153891,322927,528204,450670,480153,595244,13396,-360307,1636551622.610282,1636551622.640474,7
303,0,153098,322226,527656,450229,479713,594593,14703,-360577,1636551622.6102874,1636551622.640474,7
304,0,152789,321929,527388,449961,479423,594321,14840,-360526,1636551622.6189387,1636551622.640474,7
305,0,153178,322348,527788,450348,479813,594714,14522,-360293,1636551622.6189413,1636551622.640474,7
306,0,153314,322486,527960,450582,480067,594850,14423,-360178,1636551622.6189563,1636551622.640474,7
307,0,153464,322499,527900,450517,479950,594784,14408,-360144,1636551622.6189573,1636551622.640474,7
308,0,153413,322434,527721,450293,479650,594519,14117,-360556,1636551623,1636551622.640474,7
309,0,153373,322396,527723,450331,479726,594666,14165,-360475,1636551622.627362,1636551622.640474,7
310,0,153243,322288,527631,450279,479750,594858,13368,-360616,1636551622.6276252,1636551622.640474,7
311,0,153309,322363,527681,450293,479739,594735,13534,-360576,1636551622.6276262,1636551622.640474,7
312,0,153416,322386,527621,450214,479645,594481,14809,-360357,1636551622.6408896,1636551622.640474,7
313,0,153294,322313,527564,450221,479742,594849,13838,-360593,1636551622.640894,1636551622.640474,7
314,0,153074,322168,527594,450310,479839,594874,14213,-360693,1636551622.640915,1636551622.640474,7
315,0,153164,322204,527613,450261,479722,594601,14369,-360523,1636551622.6409156,1636551622.640474,7
316,0,153241,322242,527586,450246,479728,594705,14043,-360577,1636551622.6409187,1636551622.640474,7
317,0,153348,322423,527724,450350,479859,594906,13559,-360773,1636551622.6409197,1636551622.640474,7
318,0,153344,322421,527756,450389,479879,594846,13644,-360856,1636551622.6420484,1636551622.640474,7
319,0,153457,322447,527664,450129,479343,593948,14103,-360477,1636551622.6420496,1636551622.640474,7
320,0,153552,322542,527834,450351,479751,594746,14484,-360201,1636551622.646108,1636551622.640474,7
321,0,153433,322401,527745,450345,479805,594770,14204,-360511,1636551622.6461115,1636551622.640474,7
322,0,153371,322351,527694,450310,479793,594901,13914,-360659,1636551622.6501875,1636551622.640474,7
323,0,153856,322936,528282,450896,480373,595645,14180,-360232,1636551623,1636551622.640474,7
324,0,153856,322936,528282,450896,480373,595645,14180,-360232,1636551623,1636551622.709472,8
325,0,154304,323385,528768,451378,480779,595833,14539,-359882,1636551622.654158,1636551622.709472,8
326,0,153522,322483,527900,450561,480013,594889,14562,-360601,1636551622.6541615,1636551622.709472,8
327,0,152793,321672,526905,449393,478785,593821,13315,-361299,1636551622.6580477,1636551622.709472,8
328,0,153047,321881,527129,449564,478933,593992,13453,-360981,1636551622.6580503,1636551622.709472,8
329,0,153153,322119,527551,450101,479502,594514,13896,-360807,1636551622.6635575,1636551622.709472,8
330,0,153209,322214,527591,450166,479614,594737,14076,-360760,1636551622.6635635,1636551622.709472,8
331,0,153116,322119,527580,450268,479746,594880,14124,-360737,1636551622.667055,1636551622.709472,8
332,0,153134,322140,527571,450236,479693,594823,14036,-360792,1636551622.6670575,1636551622.709472,8
333,0,153304,322341,527739,450281,479575,594681,13910,-360748,1636551622.670114,1636551622.709472,8
334,0,153666,322651,527962,450367,479538,594630,13998,-360496,1636551622.6701162,1636551622.709472,8
335,0,153451,322446,527820,450374,479696,594856,14039,-360659,1636551622.6745577,1636551622.709472,8
336,0,153211,322186,527557,450219,479644,594894,13949,-360881,1636551622.6745596,1636551622.709472,8
337,0,153139,322151,527543,450197,479561,594712,13881,-360867,1636551622.6791952,1636551622.709472,8
338,0,153161,322145,527569,450246,479627,594809,13919,-360801,1636551622.6791973,1636551622.709472,8
339,0,153236,322238,527710,450369,479773,595029,13908,-360761,1636551623,1636551622.709472,8
340,0,153693,322733,528199,450834,480212,595577,13879,-360556,1636551622.6847527,1636551622.709472,8
341,0,153524,322576,527961,450468,479641,594813,14266,-360713,1636551622.6860063,1636551622.709472,8
342,0,153113,322121,527545,450108,479307,594483,13919,-360900,1636551622.686008,1636551622.709472,8
343,0,153336,322314,527730,450348,479635,594961,14053,-360659,1636551622.6900969,1636551622.709472,8
344,0,153884,322873,528343,450966,480227,595314,14221,-360491,1636551622.6900992,1636551622.709472,8
345,0,153981,322947,528436,451151,480422,595069,14243,-360534,1636551622.6946096,1636551622.709472,8
346,0,153009,321958,527454,450201,479503,594574,13749,-361121,1636551622.6946135,1636551622.709472,8
347,0,152249,321221,526699,449399,478683,594069,13472,-361329,1636551622.698149,1636551622.709472,8
348,0,152499,321488,526936,449654,478908,594256,13476,-361268,1636551622.6981528,1636551622.709472,8
349,0,153019,322004,527418,450156,479433,594704,13779,-360921,1636551622.702132,1636551622.709472,8
350,0,153374,322339,527659,450328,479573,594917,13784,-360758,1636551622.7021346,1636551622.709472,8
351,0,153400,322448,527836,450409,479445,594614,13686,-360785,1636551622.7059891,1636551622.709472,8
352,0,153258,322426,527976,450625,479717,594977,13238,-360878,1636551622.7059903,1636551622.709472,8
353,0,153148,322258,527799,450491,479658,595081,13393,-360968,1636551622.709923,1636551622.709472,8
354,0,153163,322213,527646,450296,479286,594322,14658,-360565,1636551622.7099252,1636551622.709472,8
355,0,153513,322531,527794,450472,479564,594940,13911,-360911,1636551622.7237484,1636551622.778311,9
356,0,153411,322502,527870,450631,479838,595666,13425,-360919,1636551622.7237487,1636551622.778311,9
357,0,153124,322338,527874,450719,479943,595838,12959,-361484,1636551622.7237515,1636551622.778311,9
358,0,152959,322001,527468,450247,479099,593870,14006,-361226,1636551622.7237523,1636551622.778311,9
359,0,153281,322370,527699,450408,479198,594180,14416,-360747,1636551622.7258756,1636551622.778311,9
360,0,153562,322629,528031,450864,479854,595094,14453,-360651,1636551622.7258778,1636551622.778311,9
361,0,153087,322122,527533,450416,479456,594667,13744,-361150,1636551622.7299883,1636551622.778311,9
362,0,153071,322146,527507,450327,479288,594511,13864,-360989,1636551622.7299905,1636551622.778311,9
363,0,153450,322544,527889,450660,479551,594701,14146,-360686,1636551622.7339315,1636551622.778311,9
364,0,153354,322446,527773,450554,479457,594600,13886,-360899,1636551622.733934,1636551622.778311,9
365,0,153249,322358,527699,450536,479531,595014,13814,-360987,1636551622.7383673,1636551622.778311,9
366,0,153177,322311,527688,450563,479619,595179,13813,-361026,1636551622.7383692,1636551622.778311,9
367,0,153231,322374,527729,450616,479615,595067,13861,-360970,1636551622.742051,1636551622.778311,9
368,0,153329,322489,527803,450673,479618,595016,13894,-360924,1636551622.7420561,1636551622.778311,9
369,0,153425,322561,527828,450680,479611,594978,13879,-360888,1636551622.7459946,1636551622.778311,9
370,0,153493,322605,527826,450628,479526,594899,13806,-360911,1636551622.7459977,1636551622.778311,9
371,0,153337,322536,527850,450752,479737,595206,13975,-361007,1636551622.7500963,1636551622.778311,9
372,0,153599,322789,528191,451188,480260,595769,14510,-360595,1636551622.7500987,1636551622.778311,9
373,0,153793,322948,528393,451380,480386,595868,14594,-360483,1636551622.754004,1636551622.778311,9
374,0,153521,322711,527989,450805,479642,595093,13791,-361029,1636551622.754007,1636551622.778311,9
375,0,152782,321949,527246,450122,479019,594611,13003,-361622,1636551622.7579372,1636551622.778311,9
376,0,153122,322289,527644,450579,479554,595236,13624,-361316,1636551622.7579384,1636551622.778311,9
377,0,153246,322481,527804,450696,479501,594755,13864,-361201,1636551622.7622576,1636551622.778311,9
378,0,152931,322104,527458,450406,479272,594735,13502,-361294,1636551623,1636551622.778311,9
379,0,153437,322552,527836,450776,479623,595119,13711,-360990,1636551622.7661395,1636551622.778311,9
380,0,153622,322701,527851,450709,479536,595056,13794,-360946,1636551622.7661545,1636551622.778311,9
381,0,153205,322352,527596,450510,479331,594790,13799,-361037,1636551622.770437,1636551622.778311,9
382,0,152641,321781,527264,450394,479451,595209,13124,-361299,1636551622.7704408,1636551622.778311,9
383,0,153200,322320,527504,450351,479083,594518,13899,-361109,1636551622.7741816,1636551622.778311,9
384,0,153704,322869,527986,450768,479484,594938,13966,-360867,1636551622.7741835,1636551622.778311,9
385,0,153237,322418,527669,450587,479436,594906,14204,-361029,1636551622.7782495,1636551622.778311,9
386,0,152918,322081,527391,450439,479423,594866,14071,-361244,1636551622.7782516,1636551622.778311,9
387,0,153163,322338,527618,450638,479600,595086,13868,-361143,1636551622.7822554,1636551622.778311,9
388,0,153334,322533,527761,450726,479599,595114,13944,-361062,1636551622.7822585,1636551622.778311,9
389,0,153309,322469,527679,450692,479599,595071,13886,-361086,1636551622.7858937,1636551622.840833,10
390,0,153282,322378,527568,450610,479559,595144,13858,-361116,1636551622.7900524,1636551622.840833,10
391,0,153386,322500,527656,450666,479564,595112,13884,-361042,1636551622.7900548,1636551622.840833,10
392,0,153430,322563,527736,450776,479738,595381,14210,-360995,1636551622.7943451,1636551622.840833,10
393,0,153536,322683,527922,451007,479926,595472,14426,-360826,1636551622.7943473,1636551622.840833,10
394,0,153494,322636,527900,450925,479808,595350,14131,-361004,1636551622.7982225,1636551622.840833,10
395,0,153188,322333,527541,450492,479306,594916,13224,-361357,1636551622.7982252,1636551622.840833,10
396,0,153220,322383,527664,450729,479685,595538,12621,-361442,1636551622.802242,1636551622.840833,10
397,0,153303,322368,527589,450589,479374,594771,14161,-361170,1636551622.802244,1636551622.840833,10
398,0,153507,322644,527835,450783,479445,594653,14427,-360970,1636551622.813063,1636551622.840833,10
399,0,153497,322684,527901,450845,479581,595049,14113,-361071,1636551622.813065,1636551622.840833,10
400,0,153311,322448,527687,450673,479483,594997,13896,-361214,1636551622.813079,1636551622.840833,10
401,0,153080,322204,527478,450483,479346,594829,13571,-361400,1636551622.8130798,1636551622.840833,10
402,0,153159,322295,527596,450604,479506,595401,13709,-361336,1636551622.8154025,1636551622.840833,10
403,0,153348,322494,527786,450753,479716,596007,13191,-361389,1636551622.8154044,1636551622.840833,10
404,0,153734,322909,528160,451116,480018,596043,13696,-361139,1636551622.8195148,1636551622.840833,10
405,0,153424,322616,527877,450821,479584,595334,14338,-361106,1636551622.819518,1636551622.840833,10
406,0,153012,322094,527401,450419,479381,595446,13258,-361514,1636551622.8223825,1636551622.840833,10
407,0,152933,321954,527263,450336,479379,595056,13210,-361583,1636551622.8223844,1636551622.840833,10
408,0,153138,322119,527356,450308,479001,594092,14059,-361601,1636551622.8259003,1636551622.840833,10
409,0,153837,322709,527734,450484,479087,594556,14006,-360810,1636551622.8259027,1636551622.840833,10
410,0,153800,322729,527843,450624,479266,594846,13846,-360938,1636551622.8301127,1636551622.840833,10
411,0,153208,322301,527684,450688,479519,595248,13963,-361282,1636551622.8301156,1636551622.840833,10
412,0,153036,322040,527530,450621,479537,595333,13942,-361294,1636551622.833836,1636551622.840833,10
413,0,153312,322306,527704,450636,479428,595086,13709,-361261,1636551622.8338375,1636551622.840833,10
414,0,153398,322353,527721,450607,479366,595059,13670,-361282,1636551622.837842,1636551622.840833,10
415,0,153321,322259,527654,450589,479392,595128,13692,-361315,1636551622.837843,1636551622.840833,10
416,0,153324,322250,527647,450601,479431,595189,13733,-361281,1636551622.8417664,1636551622.840833,10
417,0,153304,322233,527632,450598,479423,595241,13739,-361295,1636551622.8417745,1636551622.840833,10
418,0,153364,322292,527699,450673,479565,595546,13923,-361286,1636551622.8458767,1636551622.840833,10
419,0,153950,322904,528338,451237,480039,595864,14393,-360704,1636551622.845894,1636551622.840833,10
420,0,154364,323321,528803,451702,480500,596270,14764,-360298,1636551623,1636551622.909832,11
421,0,153429,322319,527844,450778,479663,595566,13751,-361372,1636551622.849772,1636551622.909832,11
422,0,152297,321127,526646,449494,478370,594348,12606,-362351,1636551622.8539648,1636551622.909832,11
423,0,152978,321847,527271,449926,478666,594569,12829,-361907,1636551622.853969,1636551622.909832,11
424,0,153533,322388,527791,450404,479171,594991,13194,-361594,1636551622.8578124,1636551622.909832,11
425,0,152951,321868,527530,450341,479352,595266,13704,-361676,1636551622.8578153,1636551622.909832,11
426,0,153161,321949,527640,450452,479480,595469,14287,-361148,1636551622.8617983,1636551622.909832,11
427,0,153825,322576,528153,450829,479749,595639,14269,-360951,1636551622.861801,1636551622.909832,11
428,0,153491,322313,527913,450574,479565,595600,14001,-361402,1636551622.8658144,1636551622.909832,11
429,0,152721,321499,527324,450044,479155,595461,13343,-361748,1636551622.8658166,1636551622.909832,11
430,0,153056,321843,527661,450254,479064,594793,13537,-361429,1636551622.870102,1636551622.909832,11
431,0,153253,321997,527745,450304,479111,594829,13511,-361496,1636551622.870104,1636551622.909832,11
432,0,153511,322259,527878,450373,479197,595076,13611,-361421,1636551622.8744009,1636551622.909832,11
433,0,153519,322273,527903,450461,479346,595253,13742,-361372,1636551622.8744028,1636551622.909832,11
434,0,153349,322115,527786,450366,479251,595125,13614,-361499,1636551622.8788745,1636551622.909832,11
435,0,153238,321949,527639,450253,479211,595113,13573,-361499,1636551622.8788772,1636551622.909832,11
436,0,153465,322118,527793,450459,479499,595514,13251,-361378,1636551622.8835723,1636551622.909832,11
437,0,153681,322355,528048,450710,479606,595439,13806,-361219,1636551622.8835747,1636551622.909832,11
438,0,153734,322428,528189,450916,479915,596012,13959,-361191,1636551623,1636551622.909832,11
439,0,153784,322598,528251,450795,479639,595667,13183,-361381,1636551622.8857317,1636551622.909832,11
440,0,153437,322201,527831,450378,479279,595124,13181,-361570,1636551622.890038,1636551622.909832,11
441,0,153307,322030,527683,450246,479242,595216,13773,-361650,1636551622.8900404,1636551622.909832,11
442,0,153404,322103,527773,450286,479144,594778,14479,-361382,1636551622.894277,1636551622.909832,11
443,0,153280,322003,527733,450330,479292,595154,13698,-361618,1636551622.894281,1636551622.909832,11
444,0,153341,322083,527777,450374,479316,595223,13438,-361699,1636551622.897943,1636551622.909832,11
445,0,153306,322027,527678,450301,479254,595196,13626,-361611,1636551622.8979478,1636551622.909832,11
446,0,153381,322070,527696,450361,479361,595333,14052,-361327,1636551622.901844,1636551622.909832,11
447,0,153478,322166,527828,450538,479561,595459,14011,-361337,1636551622.901846,1636551622.909832,11
448,0,153363,321973,527614,450411,479498,595327,13913,-361464,1636551622.9058323,1636551622.909832,11
449,0,153548,322192,527679,450422,479461,595444,13964,-361371,1636551622.9058337,1636551622.909832,11
450,0,153457,322183,527739,450436,479410,595483,13761,-361384,1636551622.9096498,1636551622.909832,11
451,0,153490,322198,527807,450555,479544,595515,13682,-361293,1636551622.9096513,1636551622.909832,11
452,0,153241,321984,527559,450301,479301,595276,13291,-361804,1636551622.9145124,1636551622.909832,11
453,0,153069,321844,527429,450172,479222,595258,13213,-362037,1636551622.9145179,1636551622.909832,11
454,0,153424,322151,527676,450306,479220,595179,13432,-361646,1636551622.919942,1636551622.978684,12
455,0,153540,322221,527633,450206,479108,595060,13414,-361562,1636551622.9199471,1636551622.978684,12
456,0,153364,322078,527572,450231,479286,595359,13399,-361665,1636551622.9289804,1636551622.978684,12
457,0,153181,321903,527538,450331,479549,595733,13318,-361741,1636551622.9289825,1636551622.978684,12
458,0,153489,322193,527696,450386,479491,595588,13593,-361569,1636551622.9289951,1636551622.978684,12
459,0,153514,322208,527651,450251,479232,594974,13667,-361552,1636551622.928996,1636551622.978684,12
460,0,153694,322358,527813,450433,479437,595096,13828,-361337,1636551622.9316204,1636551622.978684,12
461,0,154080,322755,528239,450923,479968,595848,14123,-361114,1636551622.9316225,1636551622.978684,12
462,0,153804,322444,527919,450633,479674,595554,13344,-361673,1636551622.9341247,1636551622.978684,12
463,0,153018,321569,527011,449716,478823,594713,12566,-362184,1636551622.934127,1636551622.978684,12
464,0,152979,321543,527040,449769,478853,594725,12964,-361736,1636551622.9383664,1636551622.978684,12
465,0,154048,322586,528035,450780,479789,595672,14131,-361160,1636551622.9383683,1636551622.978684,12
466,0,154442,323059,528535,451304,480194,595995,14579,-360787,1636551622.9417992,1636551622.978684,12
467,0,153482,322234,527826,450706,479758,595730,14268,-361547,1636551622.9418092,1636551622.978684,12
468,0,152694,321360,526894,449798,478896,595017,13134,-362250,1636551622.9553063,1636551622.978684,12
469,0,152696,321316,526798,449704,478839,595013,13156,-362137,1636551623,1636551622.978684,12
470,0,153193,321828,527311,450171,479252,595326,13541,-361740,1636551622.955331,1636551622.978684,12
471,0,153264,321913,527391,450238,479234,595339,13595,-361707,1636551622.9553316,1636551622.978684,12
472,0,153345,321993,527440,450307,479294,595363,13638,-361695,1636551622.9553344,1636551622.978684,12
473,0,153457,322164,527534,450454,479477,595373,13575,-361673,1636551622.955335,1636551622.978684,12
474,0,153713,322466,527862,450802,479778,595630,13603,-361422,1636551622.9581072,1636551622.978684,12
475,0,154048,322713,527961,450865,479820,595786,13943,-361210,1636551622.9581096,1636551622.978684,12
476,0,154090,322758,527938,450831,479767,595726,13875,-361381,1636551622.9620779,1636551622.978684,12
477,0,153526,322232,527421,450324,479251,595139,13333,-361741,1636551623,1636551622.978684,12
478,0,153129,321822,527040,450033,479073,595137,13156,-361789,1636551622.9658823,1636551622.978684,12
479,0,152981,321744,527119,450278,479488,595722,13518,-361853,1636551622.9658928,1636551622.978684,12
480,0,153309,322042,527337,450421,479389,595202,13719,-361604,1636551622.9696712,1636551622.978684,12
481,0,153617,322391,527564,450527,479461,595425,13581,-361586,1636551622.9696736,1636551622.978684,12
482,0,153751,322543,527812,450791,479801,596008,13019,-361594,1636551622.9736507,1636551622.978684,12
483,0,153726,322478,527761,450730,479749,595878,13459,-361644,1636551622.973652,1636551622.978684,12
484,0,153669,322383,527613,450533,479509,595480,13724,-361561,1636551622.9781506,1636551622.978684,12
485,0,153567,322346,527572,450420,479238,595097,13689,-361645,1636551622.978152,1636551622.978684,12
486,0,153289,322064,527486,450544,479604,595866,13325,-361874,1636551622.9824808,1636551622.978684,12
487,0,153479,322172,527431,450351,479278,595406,14093,-361656,1636551622.9824834,1636551622.978684,12
488,0,153777,322507,527638,450610,479602,595559,13704,-361661,1636551622.9937356,1636551623,13
489,0,153721,322420,527558,450571,479657,595660,13855,-361559,1636551622.9937377,1636551623,13
490,0,153323,322042,527252,450306,479433,595473,13671,-361722,1636551622.9991014,1636551623,13
491,0,153173,321914,527086,450141,479270,595315,13233,-361940,1636551622.999107,1636551623,13
492,0,153503,322308,527427,450401,479393,595394,13386,-361804,1636551623.001598,1636551623,13
493,0,153593,322406,527519,450504,479433,595453,13459,-361770,1636551623.0016003,1636551623,13
494,0,153540,322340,527454,450536,479505,595516,13518,-361801,1636551623.0060604,1636551623,13
495,0,153476,322301,527429,450531,479601,595626,13551,-361856,1636551623.0060625,1636551623,13
496,0,153369,322163,527369,450511,479576,595663,13548,-361869,1636551623.0101945,1636551623,13
497,0,153527,322246,527381,450478,479483,595790,13291,-361840,1636551623.0101967,1636551623,13
498,0,153598,322306,527384,450478,479394,595513,13653,-361835,1636551623.0136893,1636551623,13
499,0,153706,322422,527492,450614,479508,595467,13812,-361692,1636551623.0136917,1636551623,13
500,0,153864,322591,527622,450803,479726,595701,13544,-361646,1636551623,1636551623,13
501,0,154076,322808,527853,451079,480009,595976,13489,-361579,1636551623.0201428,1636551623,13
502,0,153699,322441,527616,450935,479881,595845,13247,-361905,1636551623,1636551623,13
503,0,153263,321998,527071,450352,479245,595419,13220,-362237,1636551623.022352,1636551623,13
504,0,153528,322256,527313,450665,479719,596323,13582,-361746,1636551623.0261054,1636551623,13
505,0,153683,322349,527362,450699,479624,595788,13173,-361610,1636551623.0261078,1636551623,13
506,0,153392,322042,527042,450331,479191,595236,14265,-361959,1636551623.0366433,1636551623,13
507,0,153397,322205,527240,450476,479205,595065,13460,-362121,1636551623.0366457,1636551623,13
508,0,153539,322374,527390,450596,479355,595379,13427,-361982,1636551623.0366583,1636551623,13
509,0,153561,322368,527391,450627,479410,595556,13531,-361925,1636551623.0366597,1636551623,13
510,0,153595,322381,527410,450684,479502,595682,13592,-361903,1636551623.0380483,1636551623,13
511,0,153542,322319,527356,450639,479488,595692,13543,-361954,1636551623.0380504,1636551623,13
512,0,153547,322299,527338,450636,479519,595814,13579,-361941,1636551623.0419924,1636551623,13
513,0,153606,322361,527394,450683,479564,595881,13606,-361877,1636551623.0419953,1636551623,13
514,0,153744,322499,527499,450735,479533,595803,13519,-361861,1636551623.0456772,1636551623,13
515,0,153737,322467,527441,450663,479438,595709,13158,-362067,1636551623.0456824,1636551623,13
516,0,154026,322808,527871,451114,479851,596056,13516,-361735,1636551623.0496356,1636551623,13
517,0,154314,323080,528196,451541,480365,596618,14449,-361186,1636551623.049638,1636551623,13
518,0,154151,322877,527974,451329,480236,596589,14478,-361324,1636551623.0536008,1636551623,13
519,0,153014,321736,526836,450246,479148,595539,13202,-362199,1636551623.053603,1636551623,13
520,0,153129,321884,526860,450171,479003,595398,13096,-362368,1636551623.0575972,1636551623,13
521,0,153551,322371,527359,450654,479421,595699,13260,-362412,1636551623.0575988,1636551623,13
522,0,153737,322467,527441,450663,479438,595709,13158,-362067,1636551623.0456824,1636551623.125742,14
523,0,154026,322808,527871,451114,479851,596056,13516,-361735,1636551623.0496356,1636551623.125742,14
524,0,154314,323080,528196,451541,480365,596618,14449,-361186,1636551623.049638,1636551623.125742,14
525,0,154151,322877,527974,451329,480236,596589,14478,-361324,1636551623.0536008,1636551623.125742,14
526,0,153014,321736,526836,450246,479148,595539,13202,-362199,1636551623.053603,1636551623.125742,14
527,0,153129,321884,526860,450171,479003,595398,13096,-362368,1636551623.0575972,1636551623.125742,14
528,0,153551,322371,527359,450654,479421,595699,13260,-362412,1636551623.0575988,1636551623.125742,14
529,0,153398,322063,527012,450286,479066,595328,13149,-362257,1636551623.0639796,1636551623.125742,14
530,0,153499,322231,527186,450411,479226,595545,13101,-362063,1636551623.0639815,1636551623.125742,14
531,0,153600,322434,527463,450733,479619,596174,12928,-362187,1636551623.0657532,1636551623.125742,14
532,0,153522,322274,527269,450468,479168,595213,13577,-362057,1636551623.0657551,1636551623.125742,14
533,0,153445,322223,527306,450557,479306,595318,13621,-362023,1636551623.0696423,1636551623.125742,14
534,0,153501,322265,527351,450623,479448,595646,13595,-362012,1636551623.0696447,1636551623.125742,14
535,0,153508,322223,527296,450601,479493,595951,13554,-362043,1636551623.073907,1636551623.125742,14
536,0,153588,322343,527373,450706,479653,596398,13211,-362141,1636551623.0739093,1636551623.125742,14
537,0,153559,322277,527253,450583,479469,595916,12720,-362296,1636551623.0786655,1636551623.125742,14
538,0,153746,322367,527247,450513,479251,595270,13390,-362087,1636551623.0786679,1636551623.125742,14
539,0,153513,322232,527245,450573,479416,595606,13565,-362145,1636551623.0816407,1636551623.125742,14
540,0,153474,322200,527288,450660,479663,596112,14059,-361936,1636551623.0816443,1636551623.125742,14
541,0,153854,322625,527636,450916,479775,596064,13903,-361774,1636551623.0856705,1636551623.125742,14
542,0,153669,322459,527549,450855,479727,596029,13648,-361949,1636551623.0856729,1636551623.125742,14
543,0,153624,322423,527596,450920,479788,596221,13113,-362063,1636551623.0895228,1636551623.125742,14
544,0,153585,322351,527424,450648,479382,595781,13403,-362149,1636551623.0895252,1636551623.125742,14
545,0,153656,322372,527448,450755,479508,595831,13735,-362036,1636551623.0940547,1636551623.125742,14
546,0,153713,322468,527493,450808,479687,596066,13540,-362061,1636551623.0940568,1636551623.125742,14
547,0,153641,322363,527422,450801,479744,596213,13366,-362137,1636551623.0975735,1636551623.125742,14
548,0,154046,322835,527925,451281,480106,596508,13056,-361999,1636551623.0975757,1636551623.125742,14
549,0,154403,323214,528143,451295,479887,595968,13859,-361702,1636551623.101554,1636551623.125742,14
550,0,153831,322588,527493,450639,479303,595576,13583,-362041,1636551623.101556,1636551623.125742,14
551,0,153314,322019,526975,450198,478994,595349,13178,-362391,1636551623.1055095,1636551623.125742,14
552,0,153445,322212,527259,450535,479384,595731,13204,-362269,1636551623.1055114,1636551623.125742,14
553,0,153605,322398,527428,450679,479503,595899,13344,-362182,1636551623.1094801,1636551623.125742,14
554,0,153671,322461,527436,450674,479593,596215,13166,-362187,1636551623.1094825,1636551623.125742,14
555,0,153619,322380,527417,450668,479584,596026,13586,-362136,1636551623.113771,1636551623.125742,14
556,0,153567,322337,527463,450715,479574,595821,13684,-362056,1636551623.1137772,1636551623.125742,14
557,0,153861,322716,527756,450896,479684,596045,13568,-361909,1636551623.117504,1636551623.125742,14
558,0,153846,322657,527703,450912,479793,596306,13688,-362040,1636551623.1175065,1636551623.125742,14
559,0,153681,322558,527568,450750,479465,595754,13133,-362462,1636551623.1215992,1636551623.125742,14
560,0,153694,322631,527687,450876,479603,595963,13306,-362267,1636551623.1216018,1636551623.125742,14
561,0,154088,322847,527891,451124,479994,596485,13924,-361840,1636551623.1336298,1636551623.194783,15
562,0,154355,323127,528148,451388,480249,596759,13990,-361589,1636551623.133631,1636551623.194783,15
563,0,154208,322987,527963,451141,479979,596474,13631,-361909,1636551623.1408231,1636551623.194783,15
564,0,153506,322246,527249,450413,479251,595793,12936,-362587,1636551623.140825,1636551623.194783,15
565,0,152911,321612,526636,449816,478703,595295,12555,-362941,1636551623.1416383,1636551623.194783,15
566,0,153472,322179,527210,450392,479315,595856,13190,-362441,1636551623.1416392,1636551623.194783,15
567,0,153811,322514,527548,450738,479682,596167,13444,-362184,1636551623.147592,1636551623.194783,15
568,0,153791,322488,527519,450701,479634,596119,13386,-362208,1636551623.1475945,1636551623.194783,15
569,0,154061,322792,527831,451004,479893,596354,13362,-362166,1636551623.1495583,1636551623.194783,15
570,0,154064,322836,527901,451049,479927,596362,13090,-362381,1636551623.149561,1636551623.194783,15
571,0,153586,322291,527422,450605,479594,596205,12598,-362517,1636551623.1535711,1636551623.194783,15
572,0,153445,322088,527258,450432,479491,596168,13048,-362238,1636551623.1535733,1636551623.194783,15
573,0,153917,322517,527597,450711,479726,595940,13895,-362392,1636551623.1579711,1636551623.194783,15
574,0,153784,322399,527406,450500,479594,595984,13819,-362409,1636551623.1579795,1636551623.194783,15
575,0,153871,322507,527636,450771,479779,595915,13803,-361974,1636551623.1620638,1636551623.194783,15
576,0,153883,322516,527626,450769,479798,596251,13697,-362062,1636551623.162066,1636551623.194783,15
577,0,153801,322443,527599,450828,479954,596525,13802,-362109,1636551623.1656203,1636551623.194783,15
578,0,153616,322226,527400,450642,479751,596264,13441,-362283,1636551623.1656227,1636551623.194783,15
579,0,153793,322321,527304,450430,479483,596058,13096,-362315,1636551623.169881,1636551623.194783,15
580,0,154049,322681,527681,450747,479603,596008,13068,-362291,1636551623.169883,1636551623.194783,15
581,0,153871,322628,527872,451067,479994,596283,12993,-362532,1636551623.1740036,1636551623.194783,15
582,0,153923,322574,527798,450983,480046,596523,12783,-362406,1636551623.1740055,1636551623.194783,15
583,0,154239,322866,528056,451239,480263,596714,14138,-361919,1636551623.1784227,1636551623.194783,15
584,0,154340,322956,528154,451363,480410,596894,14434,-361789,1636551623.178425,1636551623.194783,15
585,0,153944,322508,527654,450860,479955,596791,12897,-362344,1636551623.181882,1636551623.194783,15
586,0,153809,322289,527284,450385,479240,595884,11799,-362359,1636551623.1818843,1636551623.194783,15
587,0,153816,322406,527424,450488,479216,595642,13632,-362344,1636551623.1854343,1636551623.194783,15
588,0,153563,322234,527389,450587,479489,596132,14649,-362346,1636551623.1854367,1636551623.194783,15
589,0,153649,322324,527529,450818,479835,596291,13719,-362324,1636551623.1894927,1636551623.194783,15
590,0,153595,322212,527494,450850,479996,595976,13616,-362350,1636551623.1894987,1636551623.194783,15
591,0,153859,322376,527652,450955,480005,596216,13713,-362169,1636551623.1934576,1636551623.194783,15
592,0,154303,322820,527946,451046,479891,596213,13629,-362031,1636551623.193459,1636551623.194783,15
593,0,154057,322585,527740,450860,479716,596063,13276,-362286,1636551623.1996307,1636551623.194783,15
594,0,153808,322333,527487,450607,479470,595894,12986,-362526,1636551623.1996353,1636551623.194783,15
595,0,153871,322339,527542,450668,479746,596280,13246,-362564,1636551623.2097719,1636551623,16
596,0,154065,322512,527652,450751,479826,596356,13379,-362337,1636551623.2097738,1636551623,16
597,0,153978,322453,527703,450861,479990,596496,13483,-362306,1636551623,1636551623,16
598,0,153878,322314,527661,450888,480060,596566,13504,-362331,1636551623.2135224,1636551623,16
599,0,154028,322479,527763,450919,480022,596644,13278,-362303,1636551623.217805,1636551623,16
600,0,154043,322536,527779,450888,479930,596580,13278,-362367,1636551623.2178092,1636551623,16
601,0,154246,322746,527936,450949,479861,596190,13770,-362151,1636551623.2225232,1636551623,16
602,0,154286,322748,527965,451023,480056,596559,13582,-362180,1636551623.2225256,1636551623,16
603,0,154209,322620,527801,450913,479946,596437,13374,-362308,1636551623.2257867,1636551623,16
604,0,153945,322426,527643,450858,479918,596321,13342,-362327,1636551623.2257888,1636551623,16
605,0,153865,322398,527661,450959,480124,596628,13494,-362375,1636551623.2377455,1636551623,16
606,0,154119,322578,527806,451093,480223,596804,13774,-362152,1636551623.2377477,1636551623,16
607,0,154916,323419,528536,451714,480716,597248,14326,-361548,1636551623,1636551623,16
608,0,154655,323202,528445,451696,480765,597216,13931,-361935,1636551623.2377605,1636551623,16
609,0,153778,322204,527417,450627,479708,596235,12674,-362726,1636551623.2396479,1636551623,16
610,0,153560,321921,526986,450088,479088,595656,12542,-362877,1636551623,1636551623,16
611,0,154040,322464,527598,450733,479771,596269,13244,-362406,1636551623.2417207,1636551623,16
612,0,154186,322650,527789,450956,480061,596572,13044,-362306,1636551623.2417235,1636551623,16
613,0,154181,322729,527913,451123,480291,596907,12896,-362469,1636551623.2455392,1636551623,16
614,0,153966,322479,527679,450884,479981,596414,13533,-362492,1636551623.2455437,1636551623,16
615,0,154131,322600,527794,451058,480306,597110,13690,-362187,1636551623.249459,1636551623,16
616,0,154830,323439,528541,451676,480741,597355,14500,-361646,1636551623.2494617,1636551623,16
617,0,154631,323268,528349,451363,480260,596394,13601,-362232,1636551623.253462,1636551623,16
618,0,153799,322397,527505,450590,479648,596063,12507,-362933,1636551623.2534645,1636551623,16
619,0,153644,322172,527299,450446,479588,596088,12898,-362716,1636551623.2573273,1636551623,16
620,0,154239,322818,527890,451048,480186,596766,13989,-362084,1636551623.2573297,1636551623,16
621,0,153799,322397,527505,450590,479648,596063,12507,-362933,1636551623.2534645,1636551623.326263,17
622,0,153644,322172,527299,450446,479588,596088,12898,-362716,1636551623.2573273,1636551623.326263,17
623,0,154239,322818,527890,451048,480186,596766,13989,-362084,1636551623.2573297,1636551623.326263,17
624,0,154554,323196,528334,451516,480637,597176,13991,-362012,1636551623.2614045,1636551623.326263,17
625,0,154315,322924,528034,451214,480274,596826,13364,-362464,1636551623.2614062,1636551623.326263,17
626,0,154150,322662,527773,451033,480093,596678,13428,-362252,1636551623.2654247,1636551623.326263,17
627,0,154001,322495,527614,450917,479958,596595,13675,-362181,1636551623.2654269,1636551623.326263,17
628,0,153931,322485,527504,450719,479709,596442,13560,-362369,1636551623.2693732,1636551623.326263,17
629,0,153781,322319,527364,450606,479687,596487,13417,-362631,1636551623.2693775,1636551623.326263,17
630,0,153979,322520,527551,450779,479736,596251,13272,-362376,1636551623.2747314,1636551623.326263,17
631,0,154059,322650,527691,450915,479808,596303,13353,-362172,1636551623.2747343,1636551623.326263,17
632,0,154374,323004,528093,451324,480262,596838,13784,-361936,1636551623.277341,1636551623.326263,17
633,0,154388,323026,528128,451328,480323,596898,13623,-362494,1636551623.2773423,1636551623.326263,17
634,0,154254,322850,527917,451091,480124,596738,13477,-362501,1636551623.2818897,1636551623.326263,17
635,0,154243,322796,527810,450981,480107,596815,13481,-362397,1636551623.2818947,1636551623.326263,17
636,0,154276,322786,527814,451036,480210,596858,13509,-362362,1636551623.2854877,1636551623.326263,17
637,0,154189,322738,527853,451095,480287,596922,13551,-362395,1636551623,1636551623.326263,17
638,0,154248,322781,527867,451076,480210,596854,13571,-362355,1636551623.289572,1636551623.326263,17
639,0,154275,322849,527967,451178,480284,596908,13615,-362352,1636551623.2895746,1636551623.326263,17
640,0,154186,322830,528059,451397,480651,597340,13703,-362246,1636551623.2936883,1636551623.326263,17
641,0,154213,322871,528087,451429,480743,597465,13436,-362244,1636551623.2936904,1636551623.326263,17
642,0,154127,322686,527808,451081,480295,596858,13496,-362315,1636551623.297752,1636551623.326263,17
643,0,154379,323093,528109,451182,480126,596489,13273,-362387,1636551623.2977543,1636551623.326263,17
644,0,154616,323348,528256,451211,480136,596568,13532,-362288,1636551623.3017364,1636551623.326263,17
645,0,154545,323251,528274,451317,480394,596980,13318,-362385,1636551623.3017385,1636551623.326263,17
646,0,154346,323101,528225,451314,480443,596881,13424,-362357,1636551623.3058033,1636551623.326263,17
647,0,154065,322792,527885,450986,480187,596771,13652,-362421,1636551623.3058057,1636551623.326263,17
648,0,153891,322574,527791,450953,480124,596646,13908,-362454,1636551623.3097878,1636551623.326263,17
649,0,154254,323009,528125,451166,480223,596715,13593,-362336,1636551623,1636551623.326263,17
650,0,154443,323206,528251,451251,480309,596836,13633,-362204,1636551623.3134792,1636551623.326263,17
651,0,154398,323121,528191,451253,480307,596888,13671,-362228,1636551623.3134844,1636551623.326263,17
652,0,154208,322916,527964,451027,480021,596617,13316,-362695,1636551623.3173788,1636551623.326263,17
653,0,154413,323081,528066,451078,480001,596568,13369,-362459,1636551623.317381,1636551623.326263,17
654,0,154391,323196,528303,451419,480467,597071,13685,-362376,1636551623.3223815,1636551623.326263,17
655,0,154341,323148,528244,451381,480466,597117,13635,-362419,1636551623.3223836,1636551623.326263,17
656,0,154191,322985,528094,451221,480287,596925,13360,-362508,1636551623.3279705,1636551623.326263,17
657,0,154019,322827,527969,451133,480357,597240,13191,-362621,1636551623.3279743,1636551623.326263,17
658,0,154171,322947,528056,451199,480373,597032,13689,-362435,1636551623.3303828,1636551623.326263,17
659,0,154283,323016,528153,451345,480514,597309,13276,-362352,1636551623.3303847,1636551623.326263,17
660,0,154391,323163,528157,451196,480183,596769,13446,-362408,1636551623.3404496,1636551623.395197,18
661,0,154368,323214,528198,451219,480216,596574,13546,-362441,1636551623.3404517,1636551623.395197,18
662,0,154296,323121,528118,451187,480259,596776,13416,-362600,1636551623.3404644,1636551623.395197,18
663,0,154156,322904,527899,451051,480183,596714,13741,-362422,1636551623.3404648,1636551623.395197,18
664,0,154618,323440,528392,451506,480596,596913,13982,-362076,1636551623.343568,1636551623.395197,18
665,0,155216,324150,529148,452238,481280,597679,14239,-361761,1636551623,1636551623.395197,18
666,0,155231,324068,529048,452141,481191,597793,13934,-362009,1636551623.3482945,1636551623.395197,18
667,0,154259,323113,528035,451081,480024,596579,13074,-362886,1636551623.3482969,1636551623.395197,18
668,0,153416,322238,527286,450476,479596,596303,13339,-363013,1636551623.354934,1636551623.395197,18
669,0,154288,323113,528008,451136,480211,596934,13801,-362314,1636551623.3549364,1636551623.395197,18
670,0,154331,323208,528074,451171,480261,597089,13176,-362537,1636551623.354952,1636551623.395197,18
671,0,153983,322894,527848,451070,480366,597631,12157,-362950,1636551623.3549526,1636551623.395197,18
672,0,154300,323188,528056,451159,480130,596518,13888,-362516,1636551623.358277,1636551623.395197,18
673,0,154586,323466,528352,451474,480397,596786,14123,-362444,1636551623.3582792,1636551623.395197,18
674,0,154287,323191,528056,451216,480169,596744,13019,-362922,1636551623.3618193,1636551623.395197,18
675,0,153856,322791,527658,450784,479726,596397,13099,-362876,1636551623.3618217,1636551623.395197,18
676,0,154110,323032,528007,451216,480253,597077,14029,-362293,1636551623,1636551623.395197,18
677,0,154299,323127,528032,451239,480293,597100,13857,-362301,1636551623.3714223,1636551623.395197,18
678,0,154234,323068,527960,451196,480179,596819,13482,-362516,1636551623.3714352,1636551623.395197,18
679,0,154454,323409,528239,451359,480148,596693,13461,-362486,1636551623.3714359,1636551623.395197,18
680,0,154477,323464,528338,451516,480333,596941,13661,-362456,1636551623.3747733,1636551623.395197,18
681,0,154559,323508,528412,451637,480456,597094,13710,-362379,1636551623.3747752,1636551623.395197,18
682,0,154532,323464,528333,451603,480449,597169,13558,-362475,1636551623.3777485,1636551623.395197,18
683,0,154320,323248,528109,451413,480239,596993,13511,-362746,1636551623.3777506,1636551623.395197,18
684,0,154098,323059,527964,451277,480037,596693,13359,-362841,1636551623.3955765,1636551623.395197,18
685,0,154114,323018,527907,451219,480044,596721,13343,-362614,1636551623.3955784,1636551623.395197,18
686,0,154250,323117,528055,451379,480236,596865,13345,-362397,1636551623.3955905,1636551623.395197,18
687,0,154196,323104,528087,451421,480212,596869,13463,-362342,1636551623.3955913,1636551623.395197,18
688,0,154284,323203,528207,451613,480416,597034,13589,-362474,1636551623.395594,1636551623.395197,18
689,0,154550,323451,528485,451927,480766,597389,13788,-362770,1636551623.3955944,1636551623.395197,18
690,0,154339,323201,528237,451621,480480,597151,13636,-362647,1636551623.395597,1636551623.395197,18
691,0,154498,323346,528353,451740,480553,597200,13683,-362511,1636551623.3955972,1636551623.395197,18
692,0,154843,323653,528471,451805,480563,597393,13226,-362472,1636551623.3972113,1636551623.395197,18
693,0,154678,323541,528373,451710,480323,597062,13305,-362667,1636551623.3972137,1636551623.395197,18
694,0,154228,323134,528241,451748,480392,597025,13783,-362696,1636551623,1636551623.479784,19
695,0,154536,323356,528323,451741,480368,597244,13549,-362535,1636551623.4012418,1636551623.479784,19
696,0,154721,323446,528360,451724,480241,596751,13281,-362461,1636551623.4052193,1636551623.479784,19
697,0,154466,323325,528409,451890,480609,596949,13325,-362679,1636551623.405221,1636551623.479784,19
698,0,154384,323234,528318,451856,480691,597431,13751,-362855,1636551623.4092004,1636551623.479784,19
699,0,154549,323364,528413,451948,480664,597284,12901,-362661,1636551623.409202,1636551623.479784,19
700,0,154523,323318,528361,451909,480605,597132,13523,-362570,1636551623.4132347,1636551623.479784,19
701,0,154486,323225,528219,451770,480331,596478,14178,-362416,1636551623.4132383,1636551623.479784,19
702,0,154617,323406,528459,452095,480800,597249,13956,-362344,1636551623.4176672,1636551623.479784,19
703,0,154581,323382,528462,452078,480879,597426,13339,-362735,1636551623.4176693,1636551623.479784,19
704,0,154249,323001,528020,451568,480246,596604,13741,-362912,1636551623.4213233,1636551623.479784,19
705,0,154461,323259,528238,451776,480450,596823,13558,-362719,1636551623.4213264,1636551623.479784,19
706,0,154594,323411,528349,451890,480566,597101,13439,-362729,1636551623.425992,1636551623.479784,19
707,0,154634,323413,528329,451873,480428,596779,13873,-362607,1636551623.4259944,1636551623.479784,19
708,0,154581,323361,528349,451989,480619,597067,13743,-362612,1636551623.4302986,1636551623.479784,19
709,0,154660,323440,528423,452079,480720,597249,13796,-362556,1636551623.4303007,1636551623.479784,19
710,0,154609,323393,528371,452023,480648,597188,13688,-362626,1636551623.4351377,1636551623.479784,19
711,0,154546,323231,528144,451763,480406,596970,13371,-362730,1636551623,1636551623.479784,19
712,0,154634,323308,528268,451823,480486,597042,13137,-362862,1636551623.437539,1636551623.479784,19
713,0,154712,323604,528649,452196,480830,597326,13078,-363032,1636551623.4375415,1636551623.479784,19
714,0,154534,323363,528402,451966,480570,597100,13372,-362930,1636551623.4423342,1636551623.479784,19
715,0,154401,323136,528148,451787,480530,597321,14287,-362587,1636551623.4423373,1636551623.479784,19
716,0,154835,323629,528638,452248,480918,597503,14500,-362186,1636551623.445671,1636551623.479784,19
717,0,154938,323647,528731,452397,481045,597511,14311,-362122,1636551623.4456737,1636551623.479784,19
718,0,154918,323613,528564,452126,480688,597188,13721,-362444,1636551623.4495285,1636551623.479784,19
719,0,154293,323036,527966,451560,480140,596641,13108,-363036,1636551623.4495304,1636551623.479784,19
720,0,154479,323229,528207,451843,480418,596890,13468,-362815,1636551623.4557405,1636551623.479784,19
721,0,155078,323854,528853,452459,481007,597465,14080,-362228,1636551623.4557447,1636551623.479784,19
722,0,155333,324129,529115,452769,481363,597789,14349,-362069,1636551623.4576597,1636551623.479784,19
723,0,154779,323539,528519,452229,480885,597299,13680,-362771,1636551623.457662,1636551623.479784,19
724,0,154004,322758,527633,451311,479929,596373,12791,-363424,1636551623.4617696,1636551623.479784,19
725,0,154452,323241,528016,451639,480219,596623,13159,-363066,1636551623.4617715,1636551623.479784,19
726,0,154564,323401,528351,452053,480695,597038,13570,-362827,1636551623.4651108,1636551623.479784,19
727,0,154646,323458,528401,452103,480773,597203,13679,-362741,1636551623.4651139,1636551623.479784,19
728,0,154656,323429,528353,452035,480722,597124,13599,-362827,1636551623.471279,1636551623.479784,19
729,0,154816,323576,528528,452235,481003,597519,13667,-362638,1636551623.4712808,1636551623.479784,19
730,0,154917,323681,528669,452389,481248,598001,13707,-362737,1636551623.4731972,1636551623.479784,19
731,0,154689,323445,528383,452023,480664,596749,13776,-362792,1636551623.4731982,1636551623.479784,19
732,0,154319,323057,528009,451726,480430,596668,13483,-362842,1636551623.4770453,1636551623.479784,19
733,0,154503,323308,528249,451961,480673,596994,13553,-362762,1636551623.477046,1636551623.479784,19
734,0,154558,323310,528261,451988,480715,597059,13621,-362722,1636551623.4812973,1636551623.479784,19
735,0,154846,323541,528406,452101,480743,597064,13682,-362612,1636551623.4813015,1636551623.479784,19
736,0,154833,323628,528438,452124,480692,596927,13573,-362771,1636551623.485254,1636551623.527005,20
737,0,154701,323480,528381,452159,480761,597096,13639,-362817,1636551623.489267,1636551623.527005,20
738,0,154656,323391,528326,452155,480851,597249,13707,-362814,1636551623,1636551623.527005,20
739,0,154587,323288,528234,452128,480923,597361,13717,-362831,1636551623.493534,1636551623.527005,20
740,0,154571,323201,528086,452049,480925,597444,13748,-362816,1636551623.4935365,1636551623.527005,20
741,0,154716,323356,528202,452084,480853,597326,13711,-362787,1636551623,1636551623.527005,20
742,0,154956,323641,528549,452401,481114,597604,13543,-362672,1636551623.4970825,1636551623.527005,20
743,0,155311,324035,528809,452506,481088,597649,13424,-362674,1636551623.501414,1636551623.527005,20
744,0,154988,323738,528558,452196,480601,596679,13770,-362762,1636551623.5014164,1636551623.527005,20
745,0,154719,323489,528383,452099,480609,596834,13491,-362904,1636551623.505582,1636551623.527005,20
746,0,154797,323549,528434,452176,480722,596960,13262,-363020,1636551623.505584,1636551623.527005,20
747,0,154826,323565,528433,452161,480690,596836,13166,-363034,1636551623.5095687,1636551623.527005,20
748,0,154619,323306,528164,451923,480513,596803,13595,-362759,1636551623.5095706,1636551623.527005,20
749,0,154966,323626,528479,452309,480972,597564,14293,-362275,1636551623.513152,1636551623.527005,20
750,0,155069,323764,528619,452503,481166,597634,13756,-363010,1636551623.5131545,1636551623.527005,20
751,0,154996,323667,528518,452421,481079,597512,13075,-363056,1636551623.518916,1636551623.527005,20
752,0,154928,323578,528453,452350,481013,597489,13426,-362866,1636551623.5189185,1636551623.527005,20
753,0,155159,323812,528686,452580,481264,597907,14327,-362429,1636551623.5225224,1636551623.527005,20
754,0,155508,323989,528631,452376,480808,597122,14305,-362278,1636551623.5225246,1636551623.527005,20
755,0,155552,324019,528625,452367,480678,596863,13761,-362622,1636551623.5254116,1636551623.527005,20
756,0,154621,323352,528323,452369,480906,597339,13434,-363349,1636551623.5254195,1636551623.527005,20
757,0,153792,322385,527406,451520,480168,596953,13467,-363363,1636551623.529272,1636551623.527005,20
758,0,154432,323039,527966,451961,480422,597036,13701,-362771,1636551623.5292754,1636551623.527005,20
759,0,154691,323311,528234,452194,480644,597254,13698,-362779,1636551623.5414493,1636551623.527005,20
760,0,154816,323384,528316,452289,480835,597749,13666,-362718,1636551623.541451,1636551623.527005,20
761,0,155009,323625,528567,452548,481058,597805,13584,-362859,1636551624,1636551623.527005,20
762,0,154916,323513,528463,452390,480771,597163,14005,-362925,1636551623.5414605,1636551623.527005,20
763,0,154569,323106,528086,452085,480481,596933,13832,-363021,1636551623.5414634,1636551623.527005,20
764,0,154641,323182,528166,452181,480618,597139,13403,-363047,1636551623.5414639,1636551623.527005,20
765,0,154814,323346,528324,452329,480744,597306,13615,-362907,1636551623.5453103,1636551623.527005,20
766,0,154808,323326,528300,452314,480698,597271,13621,-362937,1636551623.5453148,1636551623.527005,20
767,0,154838,323374,528374,452378,480748,597342,13666,-362915,1636551623.549106,1636551623.595942,21
768,0,155037,323586,528610,452624,480999,597614,13915,-362679,1636551623.5491085,1636551623.595942,21
769,0,155523,324131,529179,453196,481589,598204,14460,-362212,1636551623.5532408,1636551623.595942,21
770,0,155228,323921,528981,453017,481452,598064,14116,-362701,1636551623.553244,1636551623.595942,21
771,0,154270,322837,527896,452008,480508,597194,13144,-363523,1636551623.5570767,1636551623.595942,21
772,0,154294,322714,527501,451425,479755,596439,12756,-363470,1636551623.5570788,1636551623.595942,21
773,0,154851,323378,528128,452006,480289,596889,13284,-362969,1636551623.5611117,1636551623.595942,21
774,0,154848,323563,528599,452684,481146,597814,13894,-362824,1636551623.5611153,1636551623.595942,21
775,0,154878,323539,528573,452611,481078,597749,13859,-362977,1636551623.5651553,1636551623.595942,21
776,0,154488,323074,528094,452076,480476,597121,13351,-363261,1636551623.565158,1636551623.595942,21
777,0,154652,323266,528147,451947,480155,596777,13196,-363081,1636551623.569008,1636551623.595942,21
778,0,154793,323416,528329,452206,480463,597133,13483,-362994,1636551623.5690103,1636551623.595942,21
779,0,154803,323396,528366,452296,480636,597344,13606,-362984,1636551623.5734563,1636551623.595942,21
780,0,154811,323408,528436,452383,480751,597343,13603,-362966,1636551623.5734775,1636551623.595942,21
781,0,154902,323501,528477,452376,480719,597328,13516,-362926,1636551623.577521,1636551623.595942,21
782,0,154916,323513,528470,452416,480748,597338,13482,-362936,1636551623.5775232,1636551623.595942,21
783,0,154906,323486,528449,452424,480831,597430,13561,-362939,1636551623.5810404,1636551623.595942,21
784,0,155020,323548,528459,452392,480799,597444,13545,-362909,1636551623.5810435,1636551623.595942,21
785,0,154885,323486,528437,452416,480819,597565,13340,-362992,1636551623.5855515,1636551623.595942,21
786,0,154644,323347,528391,452424,480908,597832,13508,-363216,1636551623.585554,1636551623.595942,21
787,0,154836,323449,528410,452362,480614,596953,13771,-362951,1636551623.5897472,1636551623.595942,21
788,0,154826,323438,528394,452433,480843,597471,13484,-363084,1636551623.5897496,1636551623.595942,21
789,0,154924,323513,528535,452676,481193,598020,12923,-363161,1636551623.5934703,1636551623.595942,21
790,0,154723,323323,528322,452450,480846,597460,13493,-363224,1636551623.5934725,1636551623.595942,21
791,0,154396,323062,528053,452169,480434,596941,14129,-363084,1636551623.5971313,1636551623.595942,21
792,0,154582,323253,528326,452500,480763,597338,14049,-362886,1636551623.5971344,1636551623.595942,21
793,0,154894,323543,528438,452462,480591,597063,13650,-362947,1636551623.6010025,1636551623.595942,21
794,0,155010,323668,528489,452439,480531,596964,13542,-362980,1636551623.601004,1636551623.595942,21
795,0,154909,323584,528475,452485,480641,597032,13398,-363129,1636551623.6050248,1636551623.595942,21
796,0,154853,323554,528429,452455,480583,597168,13041,-363354,1636551623.605026,1636551623.595942,21
797,0,154753,323422,528286,452313,480469,597218,12944,-363474,1636551623.608996,1636551623.595942,21
798,0,154716,323383,528293,452373,480578,597322,13576,-363159,1636551623.6089969,1636551623.595942,21
799,0,154773,323487,528456,452535,480776,597529,14138,-362848,1636551623.6155868,1636551623.595942,21
800,0,155316,324054,529010,453059,481274,597931,14464,-362427,1636551623.6155903,1636551623.595942,21
801,0,154447,323164,528089,452144,480404,597118,13260,-363404,1636551623.621158,1636551623.664755,22
802,0,154597,323337,528261,452238,480478,597087,13298,-363343,1636551623.6211631,1636551623.664755,22
803,0,154737,323481,528429,452379,480618,597171,13516,-363187,1636551623.6251862,1636551623.664755,22
804,0,154903,323658,528589,452524,480754,597333,13649,-363095,1636551623.625188,1636551623.664755,22
805,0,154886,323652,528609,452583,480852,597505,13458,-363106,1636551623.6295228,1636551623.664755,22
806,0,154702,323451,528423,452448,480778,597567,12938,-363184,1636551623.6295247,1636551623.664755,22
807,0,154843,323565,528525,452529,480906,597811,13299,-362931,1636551623.638032,1636551623.664755,22
808,0,154816,323546,528508,452443,480750,597526,13780,-362947,1636551623.638034,1636551623.664755,22
809,0,155211,323974,528891,452751,480863,597286,13608,-363270,1636551623.6380472,1636551623.664755,22
810,0,154918,323561,528312,452099,480130,596566,13291,-363295,1636551623.6380477,1636551623.664755,22
811,0,155014,323626,528326,452114,480179,596819,13562,-363038,1636551623.6416016,1636551623.664755,22
812,0,154682,323501,528492,452488,480629,597256,13536,-363244,1636551623.6416037,1636551623.664755,22
813,0,154178,323062,528181,452281,480601,597348,13407,-363678,1636551623.645271,1636551623.664755,22
814,0,154516,323326,528369,452414,480728,597522,13600,-363326,1636551623.6452732,1636551623.664755,22
815,0,155185,323985,528974,452978,481247,598014,14033,-362838,1636551623.6495037,1636551623.664755,22
816,0,155551,324384,529271,453191,481332,597947,13948,-362709,1636551623.649506,1636551623.664755,22
817,0,154789,323653,528558,452473,480656,597328,13399,-363428,1636551623.653084,1636551623.664755,22
818,0,153874,322692,527633,451556,479780,596573,12631,-364052,1636551623.6530864,1636551623.664755,22
819,0,154386,323211,528154,452021,480200,597042,13158,-363542,1636551623.657179,1636551623.664755,22
820,0,154840,323709,528651,452504,480636,597433,13465,-363331,1636551623.6571815,1636551623.664755,22
821,0,154651,323502,528401,452274,480472,597379,13311,-363589,1636551623.6614454,1636551623.664755,22
822,0,154407,323197,528086,451984,480174,597126,13204,-363459,1636551623.661452,1636551623.664755,22
823,0,154558,323366,528231,452206,480505,597509,13466,-363357,1636551623.6808193,1636551623.664755,22
824,0,154404,323241,528152,452224,480616,597675,13547,-363560,1636551623.6808248,1636551623.664755,22
825,0,154568,323527,528503,452580,480828,597508,13438,-363290,1636551623.6808505,1636551623.664755,22
826,0,154966,323861,528743,452728,480916,597761,13690,-363081,1636551623.6808512,1636551623.664755,22
827,0,154981,323717,528511,452446,480659,597745,13141,-363281,1636551623.6808555,1636551623.664755,22
828,0,154645,323402,528164,452124,480388,597552,12704,-363469,1636551623.6808565,1636551623.664755,22
829,0,154464,323273,528134,452153,480424,597256,12809,-363407,1636551623.6808608,1636551623.664755,22
830,0,154531,323322,528183,452200,480456,597050,13985,-363442,1636551623.6808617,1636551623.664755,22
831,0,154685,323477,528329,452408,480748,597451,13647,-363429,1636551623.6832983,1636551623.664755,22
832,0,154580,323366,528201,452263,480567,597401,13446,-363417,1636551623.6833017,1636551623.664755,22
833,0,154473,323271,528163,452176,480394,597318,13813,-363302,1636551623.6853192,1636551623.664755,22
834,0,154778,323570,528366,452269,480394,597234,13646,-363181,1636551623.6853216,1636551623.664755,22
835,0,154855,323682,528421,452301,480460,597287,13382,-363309,1636551623.6970174,1636551623.749252,23
836,0,154776,323561,528356,452388,480638,597520,13533,-363352,1636551624,1636551623.749252,23
837,0,154847,323753,528587,452681,480971,597828,13602,-363401,1636551623.701357,1636551623.749252,23
838,0,154733,323601,528405,452474,480773,597648,13348,-363537,1636551623.7013588,1636551623.749252,23
839,0,154276,323136,527892,451927,480152,597099,13274,-363743,1636551623.7053504,1636551623.749252,23
840,0,154546,323399,528135,452123,480334,597291,13612,-363342,1636551623.7053523,1636551623.749252,23
841,0,154569,323448,528224,452223,480489,597426,13351,-363379,1636551623.7094595,1636551623.749252,23
842,0,154446,323340,528170,452222,480526,597526,13449,-363462,1636551623.7094617,1636551623.749252,23
843,0,154444,323298,528138,452236,480540,597545,13498,-363409,1636551623.7145596,1636551623.749252,23
844,0,154679,323491,528256,452304,480538,597503,13500,-363323,1636551623.7145638,1636551623.749252,23
845,0,154906,323817,528469,452364,480443,597352,13351,-363465,1636551623.7191153,1636551623.749252,23
846,0,154830,323695,528376,452284,480409,597393,13348,-363488,1636551623.7191176,1636551623.749252,23
847,0,154798,323586,528249,452200,480376,597415,13401,-363433,1636551623.7210488,1636551623.749252,23
848,0,154757,323615,528323,452331,480524,597532,13464,-363399,1636551623.7210526,1636551623.749252,23
849,0,154817,323766,528538,452519,480673,597683,13603,-363379,1636551623.7287467,1636551623.749252,23
850,0,154929,323821,528572,452589,480744,597786,13704,-363301,1636551623.728749,1636551623.749252,23
851,0,154811,323693,528429,452477,480649,597797,13093,-363478,1636551623.7305515,1636551623.749252,23
852,0,154578,323476,528230,452313,480454,597678,12831,-363634,1636551623.7305536,1636551623.749252,23
853,0,154738,323659,528381,452396,480438,597604,13108,-363617,1636551623.7349875,1636551623.749252,23
854,0,154647,323536,528229,452186,480232,597367,12702,-363770,1636551623.7349896,1636551623.749252,23
855,0,154572,323423,528161,452161,480248,597429,13132,-363645,1636551623.7467425,1636551623.749252,23
856,0,155078,323951,528683,452644,480583,597369,14486,-362954,1636551623.7467563,1636551623.749252,23
857,0,154744,323638,528401,452408,480433,597462,13686,-363356,1636551623.7468076,1636551623.749252,23
858,0,154667,323506,528246,452336,480384,597498,13508,-363341,1636551623.746808,1636551623.749252,23
859,0,154803,323588,528211,452271,480263,597377,13421,-363131,1636551623.7468112,1636551623.749252,23
860,0,154822,323767,528423,452449,480374,597481,13384,-363410,1636551623.7468126,1636551623.749252,23
861,0,154896,323896,528616,452734,480726,597902,13609,-363647,1636551623.7503452,1636551623.749252,23
862,0,155164,324081,528634,452712,480672,597937,13512,-363242,1636551623.7503474,1636551623.749252,23
863,0,155113,323991,528478,452561,480559,598101,12965,-363673,1636551623.754545,1636551623.749252,23
864,0,154799,323749,528344,452478,480301,597296,13594,-363597,1636551623.7545483,1636551623.749252,23
865,0,154846,323821,528519,452776,480713,597726,13874,-363191,1636551623.7600367,1636551623.749252,23
866,0,155287,324235,528877,453147,481027,598085,14053,-362944,1636551624,1636551623.749252,23
867,0,154891,323815,528361,452608,480481,597577,13336,-363591,1636551623.7607336,1636551623.749252,23
868,0,154441,323343,527898,452165,480072,597308,12468,-364021,1636551623.7607353,1636551623.749252,23
869,0,154799,323749,528344,452478,480301,597296,13594,-363597,1636551623.7545483,1636551623.827371,24
870,0,154846,323821,528519,452776,480713,597726,13874,-363191,1636551623.7600367,1636551623.827371,24
871,0,155287,324235,528877,453147,481027,598085,14053,-362944,1636551624,1636551623.827371,24
872,0,154891,323815,528361,452608,480481,597577,13336,-363591,1636551623.7607336,1636551623.827371,24
873,0,154441,323343,527898,452165,480072,597308,12468,-364021,1636551623.7607353,1636551623.827371,24
874,0,154886,323849,528508,452873,480855,598050,12766,-363771,1636551623.7648752,1636551623.827371,24
875,0,154838,323826,528541,452863,480732,597744,13479,-363772,1636551623.764877,1636551623.827371,24
876,0,154579,323480,528147,452397,480329,597697,13651,-363642,1636551623.7689323,1636551623.827371,24
877,0,154521,323454,528072,452226,480117,597404,13448,-363656,1636551623.7689354,1636551623.827371,24
878,0,153851,322830,527580,451842,479813,597017,12934,-363979,1636551623.7729096,1636551623.827371,24
879,0,154149,322988,527671,451923,479969,597220,13209,-363661,1636551623.772912,1636551623.827371,24
880,0,154413,323220,527946,452206,480238,597437,13329,-363618,1636551623.781316,1636551623.827371,24
881,0,154638,323466,528151,452336,480261,597456,13282,-363574,1636551624,1636551623.827371,24
882,0,154933,323823,528407,452403,480170,597359,13238,-363505,1636551623.781362,1636551623.827371,24
883,0,154840,323754,528448,452516,480329,597451,13334,-363536,1636551623.7813635,1636551623.827371,24
884,0,154783,323666,528401,452486,480394,597635,13375,-363551,1636551623.7858896,1636551623.827371,24
885,0,154753,323616,528360,452439,480377,597743,13336,-363601,1636551623.785892,1636551623.827371,24
886,0,154698,323554,528288,452359,480348,597711,13363,-363642,1636551623.7899396,1636551623.827371,24
887,0,154580,323445,528288,452478,480503,597692,13420,-363663,1636551623.789942,1636551623.827371,24
888,0,154656,323545,528374,452508,480484,597711,13395,-363637,1636551623.7933967,1636551623.827371,24
889,0,154633,323528,528349,452438,480412,597842,13188,-363752,1636551623.7933989,1636551623.827371,24
890,0,154711,323600,528469,452556,480538,597913,12994,-363792,1636551623.7968595,1636551623.827371,24
891,0,154749,323630,528503,452659,480747,598447,13073,-363759,1636551623.796862,1636551623.827371,24
892,0,154834,323674,528484,452508,480287,597391,13696,-363385,1636551623.8022869,1636551623.827371,24
893,0,155109,323973,528743,452633,480338,597438,13518,-363347,1636551623.8022888,1636551623.827371,24
894,0,154857,323745,528626,452541,480327,597531,13266,-363672,1636551623.806014,1636551623.827371,24
895,0,154674,323560,528513,452444,480291,597494,13171,-363721,1636551623.8060153,1636551623.827371,24
896,0,154697,323606,528541,452478,480318,597594,13250,-363674,1636551623.8087656,1636551623.827371,24
897,0,154663,323611,528539,452495,480323,597611,13231,-363687,1636551623.8087668,1636551623.827371,24
898,0,154666,323614,528553,452576,480439,597734,13295,-363670,1636551623.8161008,1636551623.827371,24
899,0,154648,323579,528506,452567,480466,597799,13317,-363679,1636551623.816105,1636551623.827371,24
900,0,154704,323616,528525,452593,480494,597870,13378,-363632,1636551623.8188436,1636551623.827371,24
901,0,154759,323734,528583,452586,480469,597828,13354,-363674,1636551623.8188453,1636551623.827371,24
902,0,154538,323510,528494,452528,480430,597810,13294,-363776,1636551623.8236165,1636551623.827371,24
903,0,154766,323701,528643,452519,480268,597630,13224,-363610,1636551623.823619,1636551623.827371,24
904,0,154908,323926,528825,452607,480196,597514,13216,-363620,1636551623.8247893,1636551623.827371,24
905,0,154788,323771,528714,452559,480182,597552,13344,-363684,1636551623.8247905,1636551623.827371,24
906,0,154973,323941,528784,452538,480091,597408,13371,-363528,1636551623.8286552,1636551623.827371,24
907,0,154939,323989,528903,452775,480492,597979,13073,-363556,1636551623.8286574,1636551623.827371,24
908,0,154350,323459,528496,452529,480373,597921,12992,-364015,1636551623.8344665,1636551623.880745,25
909,0,154541,323584,528522,452523,480176,597397,13394,-363773,1636551623.8344684,1636551623.880745,25
910,0,154628,323674,528608,452624,480263,597636,13236,-363774,1636551623.843006,1636551623.880745,25
911,0,154674,323709,528670,452715,480376,597811,13363,-363710,1636551623.8430097,1636551623.880745,25
912,0,154928,323878,528878,453024,480739,598130,13495,-363526,1636551623.8430345,1636551623.880745,25
913,0,155499,324500,529358,453394,480994,598351,13486,-363261,1636551623.8430352,1636551623.880745,25
914,0,155226,324300,529059,453048,480646,598124,13019,-363719,1636551623.8455172,1636551623.880745,25
915,0,154334,323308,528164,452306,480086,597722,12681,-364173,1636551623.845521,1636551623.880745,25
916,0,154177,323068,527935,452052,479694,597098,13249,-363982,1636551624,1636551623.880745,25
917,0,154539,323505,528413,452558,480274,597952,12568,-363925,1636551623.8493524,1636551623.880745,25
918,0,154953,323981,528816,452918,480641,598541,12599,-363907,1636551623.8649054,1636551623.880745,25
919,0,155111,324131,528893,452881,480277,597303,13309,-363739,1636551623.864908,1636551623.880745,25
920,0,154536,323552,528411,452529,480069,597174,13499,-363889,1636551623.8649216,1636551623.880745,25
921,0,154483,323425,528244,452375,480048,597517,13708,-363735,1636551623.8649225,1636551623.880745,25
922,0,154881,323775,528528,452591,480186,597591,13626,-363415,1636551623.8649256,1636551623.880745,25
923,0,155003,323946,528768,452847,480428,597744,13642,-363160,1636551623.864926,1636551623.880745,25
924,0,155113,324144,529123,453287,481001,598370,14155,-363074,1636551623.8649285,1636551623.880745,25
925,0,155286,324281,529158,453299,480980,598294,13977,-363733,1636551623.864929,1636551623.880745,25
926,0,154866,323832,528731,452983,480751,598356,13147,-364151,1636551623.8690507,1636551623.880745,25
927,0,154050,323048,528013,452271,480004,597772,12369,-364396,1636551623.869053,1636551623.880745,25
928,0,154062,323067,528070,452333,479901,597241,13226,-364126,1636551623.8735511,1636551623.880745,25
929,0,154701,323706,528507,452678,480205,597646,13281,-363806,1636551623.8735535,1636551623.880745,25
930,0,154529,323444,528369,452714,480332,597880,13211,-363808,1636551623.877139,1636551623.880745,25
931,0,154771,323666,528528,452734,480090,597492,13136,-363679,1636551623.8771412,1636551623.880745,25
932,0,154932,324008,528829,452938,480285,597829,13511,-363650,1636551623.8968053,1636551623.880745,25
933,0,154939,323946,528776,452963,480420,598018,13436,-363807,1636551623.896809,1636551623.880745,25
934,0,154709,323674,528502,452725,480153,597629,12887,-364080,1636551623.8968296,1636551623.880745,25
935,0,154534,323496,528384,452709,480216,597888,12540,-364135,1636551623.8968303,1636551623.880745,25
936,0,154606,323535,528407,452723,480225,597958,12759,-363868,1636551623.8968332,1636551623.880745,25
937,0,154864,323796,528626,452891,480253,597631,14414,-363471,1636551623.8968337,1636551623.880745,25
938,0,154826,323820,528655,452960,480373,597848,13716,-363619,1636551623.8968363,1636551623.880745,25
939,0,154709,323680,528513,452853,480358,597878,13484,-363718,1636551623.8968363,1636551623.880745,25
940,0,154753,323686,528531,452823,480341,597897,13459,-363712,1636551623.8968391,1636551623.880745,25
941,0,154947,323941,528719,452926,480331,597821,13399,-363676,1636551623.8968394,1636551623.880745,25
942,0,154789,323754,528507,452820,480409,597942,13374,-363786,1636551623.9144928,1636551623.949652,26
943,0,154934,323940,528645,452859,480368,597894,13301,-363779,1636551623.9144936,1636551623.949652,26
944,0,154956,323894,528589,452848,480403,598028,13430,-363792,1636551623.9169536,1636551623.949652,26
945,0,154863,323811,528564,452842,480366,597896,13376,-363786,1636551623.9169557,1636551623.949652,26
946,0,154898,323834,528614,452925,480473,598021,13444,-363739,1636551623.9207697,1636551623.949652,26
947,0,154904,323832,528622,452969,480538,598034,13440,-363749,1636551623.9207723,1636551623.949652,26
948,0,154868,323771,528587,452964,480570,598061,13426,-363728,1636551623.925186,1636551623.949652,26
949,0,154831,323723,528569,452946,480588,598063,13489,-363734,1636551623.925188,1636551623.949652,26
950,0,154963,323888,528744,453077,480674,598159,13604,-363626,1636551623.9286938,1636551623.949652,26
951,0,155088,324061,528894,453176,480734,598194,13299,-363714,1636551623.928696,1636551623.949652,26
952,0,155082,324089,528864,453087,480589,598013,12779,-363964,1636551623.9329977,1636551623.949652,26
953,0,154846,323798,528610,452858,480371,597858,12956,-364015,1636551623.9329996,1636551623.949652,26
954,0,154650,323544,528433,452717,480296,597932,13521,-363839,1636551623.9370697,1636551623.949652,26
955,0,154828,323728,528638,452931,480548,598146,13510,-363724,1636551623.9370716,1636551623.949652,26
956,0,154857,323750,528686,453000,480683,598448,13018,-363842,1636551623.9409945,1636551623.949652,26
957,0,155094,323963,528904,453193,480883,598623,13124,-363719,1636551623.9409964,1636551623.949652,26
958,0,155014,323823,528730,452978,480563,597891,13714,-363651,1636551623.9496112,1636551623.949652,26
959,0,154875,323675,528564,452773,480321,597573,13493,-363732,1636551623.949614,1636551623.949652,26
960,0,154899,323766,528691,452950,480561,597971,13399,-363777,1636551623.9496295,1636551623.949652,26
961,0,154982,323877,528799,453067,480730,598181,13480,-363761,1636551623.9496303,1636551623.949652,26
962,0,155049,323905,528842,453141,480798,598243,13497,-363704,1636551623.9534912,1636551623.949652,26
963,0,155988,324813,529728,453997,481643,599098,14436,-362825,1636551623.9534934,1636551623.949652,26
964,0,156346,325206,530113,454303,481865,599218,14556,-362656,1636551623.9568007,1636551623.949652,26
965,0,155087,324015,529033,453288,480964,598356,13044,-363978,1636551623.956803,1636551623.949652,26
966,0,153878,322754,527806,452104,479943,597423,11751,-364957,1636551623.9606175,1636551623.949652,26
967,0,154191,322991,527975,452219,479959,597328,12984,-364396,1636551623.9606187,1636551623.949652,26
968,0,155988,324813,529728,453997,481643,599098,14436,-362825,1636551623.9534934,1636551624.012141,27
969,0,156346,325206,530113,454303,481865,599218,14556,-362656,1636551623.9568007,1636551624.012141,27
970,0,155087,324015,529033,453288,480964,598356,13044,-363978,1636551623.956803,1636551624.012141,27
971,0,153878,322754,527806,452104,479943,597423,11751,-364957,1636551623.9606175,1636551624.012141,27
972,0,154191,322991,527975,452219,479959,597328,12984,-364396,1636551623.9606187,1636551624.012141,27
973,0,154428,323207,528206,452469,480284,597964,13253,-364042,1636551623.9648583,1636551624.012141,27
974,0,154706,323526,528624,452945,480838,598630,12754,-363975,1636551623.9648595,1636551624.012141,27
975,0,154964,323783,528734,452905,480647,598328,12835,-363974,1636551623.9686167,1636551624.012141,27
976,0,155184,323983,528814,452739,480172,597333,13619,-363677,1636551623.968619,1636551624.012141,27
977,0,154662,323619,528838,453049,480859,598378,13633,-363989,1636551623.972628,1636551624.012141,27
978,0,154706,323604,528751,452979,480833,598384,13468,-363938,1636551623.9726305,1636551624.012141,27
979,0,154999,323874,528882,452902,480591,598049,13183,-363851,1636551623.9766128,1636551624.012141,27
980,0,155016,323921,528954,452894,480558,597985,12979,-363978,1636551623.9766147,1636551624.012141,27
981,0,155300,324238,529269,453151,480784,598208,13053,-363885,1636551623.9808338,1636551624.012141,27
982,0,155263,324178,529253,453214,480896,598376,13379,-363844,1636551623.9808364,1636551624.012141,27
983,0,154913,323799,528906,452922,480628,598168,13505,-363850,1636551623.985587,1636551624.012141,27
984,0,154773,323632,528726,452739,480445,597985,13299,-363755,1636551623.9855895,1636551624.012141,27
985,0,154851,323716,528766,452768,480501,598062,13278,-363758,1636551623.9888384,1636551624.012141,27
986,0,155014,323882,528948,452994,480724,598252,13394,-363641,1636551623.988842,1636551624.012141,27
987,0,155130,324004,529074,453196,480915,598358,13361,-363808,1636551623.9930212,1636551624.012141,27
988,0,154885,323798,528829,452997,480758,598212,13167,-364141,1636551623.9930232,1636551624.012141,27
989,0,155016,323928,528961,453238,481129,598744,13516,-363911,1636551623.997151,1636551624.012141,27
990,0,155154,323888,528916,453231,481107,598844,13230,-363821,1636551623.9971533,1636551624.012141,27
991,0,155322,324201,529139,453181,480694,598166,13217,-363702,1636551624.0010421,1636551624.012141,27
992,0,154933,323816,528782,452846,480359,597861,13323,-363951,1636551624.0010443,1636551624.012141,27
993,0,155132,323964,528854,452890,480394,597919,12952,-363871,1636551624.0051212,1636551624.012141,27
994,0,154906,323798,528796,452869,480403,597969,12982,-364071,1636551624.0051231,1636551624.012141,27
995,0,154672,323609,528732,452870,480574,598231,12913,-364284,1636551624.0089898,1636551624.012141,27
996,0,154663,323546,528650,452780,480509,598155,12840,-364194,1636551624.008992,1636551624.012141,27
997,0,154517,323368,528458,452632,480382,598105,13312,-363884,1636551624.012746,1636551624.012141,27
998,0,154973,323865,528930,453099,480901,598847,13748,-363687,1636551624.0127492,1636551624.012141,27
999,0,155387,324348,529329,453390,481020,598691,13714,-363908,1636551624,1636551624.012141,27
1000,0,155368,324298,529274,453244,480676,597882,13537,-363637,1636551624.0166347,1636551624.012141,27
1001,0,155154,324069,529109,453149,480726,598308,13482,-363779,1636551624.020496,1636551624.012141,27
1002,0,154942,323828,528864,452956,480623,598404,12961,-364088,1636551624.0204985,1636551624.012141,27
1003,0,155263,324112,529141,453265,481026,598995,12528,-364033,1636551624.0245142,1636551624.012141,27
1004,0,155133,324039,529098,453150,480832,598519,13003,-364062,1636551624.024516,1636551624.012141,27
1005,0,154763,323673,528718,452726,480331,597832,13632,-363962,1636551624.0284388,1636551624.012141,27
1006,0,154934,323829,528917,452946,480600,598266,13714,-363735,1636551624.0284414,1636551624.012141,27
1007,0,154965,323879,528995,453006,480641,598338,13398,-363877,1636551624.0325303,1636551624.081351,28
1008,0,154933,323839,528961,452980,480624,598384,13334,-363954,1636551624.032532,1636551624.081351,28
1009,0,154942,323808,528937,452988,480689,598422,13339,-363964,1636551624.041649,1636551624.081351,28
1010,0,155030,323896,529002,453014,480718,598564,13164,-363945,1636551624.041651,1636551624.081351,28
1011,0,155056,323978,529078,453106,480790,598628,13173,-363998,1636551624.0456169,1636551624.081351,28
1012,0,155459,324349,529389,453357,480873,598393,13925,-363571,1636551624.0456188,1636551624.081351,28
1013,0,155534,324353,529325,453329,480923,598619,13609,-363576,1636551624.0456305,1636551624.081351,28
1014,0,154906,323683,528689,452790,480578,598558,13218,-364179,1636551624.0456307,1636551624.081351,28
1015,0,154649,323488,528597,452701,480345,597981,13091,-364146,1636551624.0486605,1636551624.081351,28
1016,0,154916,323824,528912,452961,480549,598106,13136,-363992,1636551624.0486624,1636551624.081351,28
1017,0,154999,323931,528927,452884,480514,598523,13099,-364044,1636551624.0526624,1636551624.081351,28
1018,0,155050,323983,528998,452966,480678,598718,13246,-364024,1636551624.0526645,1636551624.081351,28
1019,0,155458,324398,529437,453397,481153,599051,13721,-363591,1636551624.056601,1636551624.081351,28
1020,0,155858,324832,529879,453822,481589,599458,14161,-363231,1636551624.056604,1636551624.081351,28
1021,0,155431,324354,529421,453366,481140,599001,13649,-363812,1636551624.0609505,1636551624.081351,28
1022,0,154490,323407,528432,452338,480079,597960,12563,-364609,1636551624.060953,1636551624.081351,28
1023,0,154424,323356,528366,452241,479964,597850,12492,-364571,1636551624.0649672,1636551624.081351,28
1024,0,154759,323642,528692,452638,480423,598308,13001,-364247,1636551624.0649695,1636551624.081351,28
1025,0,154954,323796,528814,452808,480662,598596,13106,-364072,1636551624.068924,1636551624.081351,28
1026,0,155203,324097,529073,453040,480920,598948,12662,-364044,1636551624.068926,1636551624.081351,28
1027,0,155428,324359,529201,453004,480658,598484,12715,-364124,1636551624.0730224,1636551624.081351,28
1028,0,155439,324417,529286,453104,480661,598268,13518,-364051,1636551624.0730252,1636551624.081351,28
1029,0,155191,324209,529178,453080,480715,598439,13488,-364021,1636551624.076841,1636551624.081351,28
1030,0,155131,324074,529037,452967,480689,598596,13638,-363862,1636551624.0768433,1636551624.081351,28
1031,0,155126,324064,528983,452913,480652,598536,13409,-363891,1636551624.0806346,1636551624.081351,28
1032,0,155191,324144,529061,452988,480729,598627,13373,-363930,1636551624.080637,1636551624.081351,28
1033,0,155268,324227,529232,453259,481146,599300,13006,-363897,1636551624.0845444,1636551624.081351,28
1034,0,155451,324332,529365,453390,481327,599508,12821,-363891,1636551624.084547,1636551624.081351,28
1035,0,155490,324353,529175,452943,480513,598078,14065,-363932,1636551624.0906024,1636551624.081351,28
1036,0,154809,323829,528787,452688,480428,598302,13302,-364230,1636551624.0906048,1636551624.081351,28
1037,0,154881,323851,528835,452794,480611,598476,13313,-364034,1636551624.092431,1636551624.081351,28
1038,0,154881,323858,528972,453039,481071,599055,13604,-364039,1636551624.0924332,1636551624.081351,28
1039,0,155436,324347,529197,453015,480869,598912,13406,-363719,1636551624.096538,1636551624.081351,28
1040,0,155780,324771,529508,453294,481177,599528,12576,-363798,1636551624.0965395,1636551624.081351,28
1041,0,155128,324148,528883,452801,480523,598404,13323,-364094,1636551624.104557,1636551624.181587,29
1042,0,155026,324111,528918,452890,480629,598514,13334,-364074,1636551624.1045585,1636551624.181587,29
1043,0,155431,324516,529251,453199,480911,598721,13326,-363869,1636551624.1085887,1636551624.181587,29
1044,0,155701,324846,529569,453571,481306,599119,13283,-363961,1636551624.1085908,1636551624.181587,29
1045,0,155331,324486,529154,453168,480903,598743,12854,-364403,1636551624.1167946,1636551624.181587,29
1046,0,154800,323917,528557,452583,480309,598204,12981,-364402,1636551624.1167972,1636551624.181587,29
1047,0,154956,324050,528690,452748,480466,598404,13619,-363872,1636551624.1168077,1636551624.181587,29
1048,0,155323,324416,529034,453153,480863,598811,13675,-363757,1636551624.1168082,1636551624.181587,29
1049,0,155224,324295,528886,453021,480732,598726,13346,-363932,1636551624.1205122,1636551624.181587,29
1050,0,155199,324206,528746,452858,480495,598514,13018,-364037,1636551624.1205304,1636551624.181587,29
1051,0,155361,324428,529052,453189,480868,598928,13206,-364084,1636551624.124522,1636551624.181587,29
1052,0,155146,324228,528924,453110,480845,598923,12840,-364281,1636551624.1245244,1636551624.181587,29
1053,0,154718,323744,528450,452674,480518,598516,12511,-364346,1636551624.1289227,1636551624.181587,29
1054,0,154720,323741,528456,452683,480689,599089,13244,-364131,1636551624.1289277,1636551624.181587,29
1055,0,155444,324464,529128,453228,480953,598709,13923,-363996,1636551624.1328833,1636551624.181587,29
1056,0,155200,324219,528856,452909,480619,598476,13360,-364147,1636551624.132886,1636551624.181587,29
1057,0,155181,324228,528872,452925,480656,598643,13251,-364135,1636551624,1636551624.181587,29
1058,0,155136,324202,528868,452963,480703,598704,13243,-364124,1636551624.1363516,1636551624.181587,29
1059,0,155156,324246,528919,453043,480786,598906,13184,-364122,1636551624.1459856,1636551624.181587,29
1060,0,155189,324265,528907,453037,480841,599238,13086,-364219,1636551624.1459885,1636551624.181587,29
1061,0,155318,324353,528955,452974,480579,598434,13583,-363978,1636551624.1460035,1636551624.181587,29
1062,0,155121,324166,528841,452942,480674,598524,13349,-364065,1636551624.146004,1636551624.181587,29
1063,0,155019,324023,528774,452936,480784,598736,13335,-364092,1636551624,1636551624.181587,29
1064,0,155329,324337,529066,453193,480962,599113,13444,-363892,1636551624.1484523,1636551624.181587,29
1065,0,156013,325144,529770,453769,481366,599593,13973,-363392,1636551624.152845,1636551624.181587,29
1066,0,155733,324912,529514,453453,481023,599152,13463,-363947,1636551624.1528473,1636551624.181587,29
1067,0,154878,323979,528618,452605,480275,598358,12343,-364806,1636551624.1565297,1636551624.181587,29
1068,0,154734,323747,528397,452369,480074,598117,12256,-364710,1636551624.156532,1636551624.181587,29
1069,0,155017,324060,528786,452817,480556,598681,13287,-364157,1636551624.1610022,1636551624.181587,29
1070,0,155214,324264,529005,453076,480892,599054,13535,-363959,1636551624.1610055,1636551624.181587,29
1071,0,155368,324406,529078,453088,480867,599000,13444,-363975,1636551624,1636551624.181587,29
1072,0,155457,324522,529181,453117,480842,598945,13431,-364039,1636551624.164942,1636551624.181587,29
1073,0,155304,324347,529052,453011,480813,598878,13307,-364067,1636551624.1821003,1636551624.181587,29
1074,0,154988,324003,528709,452686,480576,598701,12959,-364276,1636551624.1821043,1636551624.181587,29
1075,0,155039,324019,528741,452744,480667,598753,13027,-364251,1636551624.1821225,1636551624.181587,29
1076,0,155334,324381,529065,453010,480829,598872,13162,-364087,1636551624.182123,1636551624.181587,29
1077,0,155309,324394,529081,453035,480812,598928,13161,-364176,1636551624.1821268,1636551624.181587,29
1078,0,155498,324643,529284,453173,480834,598911,13070,-364072,1636551624.1821277,1636551624.181587,29
1079,0,155758,324955,529669,453624,481362,599658,12608,-363992,1636551624.1821303,1636551624.181587,29
1080,0,155479,324619,529308,453250,480953,599099,13564,-364154,1636551624.1821308,1636551624.181587,29
1081,0,154966,324002,528659,452669,480485,598677,13595,-364266,1636551624,1636551624.181587,29
1082,0,155098,324031,528734,452826,480724,598996,13150,-364060,1636551624.1870265,1636551624.181587,29
1083,0,155098,324031,528734,452826,480724,598996,13150,-364060,1636551624.1870265,1636551624.228681,30
1084,0,155888,324984,529513,453359,481035,599385,12642,-363879,1636551624.1885247,1636551624.228681,30
1085,0,155689,324884,529475,453356,480954,598900,13116,-364053,1636551624.1885276,1636551624.228681,30
1086,0,154994,324133,528786,452823,480628,598595,12844,-364684,1636551624.1923516,1636551624.228681,30
1087,0,154765,323865,528505,452606,480633,599026,12918,-364651,1636551624.1923535,1636551624.228681,30
1088,0,154968,324114,528709,452779,480761,598908,13669,-364163,1636551624.1969173,1636551624.228681,30
1089,0,155127,324235,528816,452875,480789,598801,13423,-364056,1636551624.1969192,1636551624.228681,30
1090,0,155390,324386,528884,452859,480630,598621,13149,-364029,1636551624.2003875,1636551624.228681,30
1091,0,155393,324541,529004,452929,480699,598773,13187,-364106,1636551624.2003894,1636551624.228681,30
1092,0,155359,324519,529043,453008,480853,598994,13289,-364075,1636551624.204831,1636551624.228681,30
1093,0,155288,324476,529071,453079,480941,599104,13178,-364240,1636551624.2048333,1636551624.228681,30
1094,0,155424,324577,529269,453343,481273,599621,13047,-364155,1636551624.209052,1636551624.228681,30
1095,0,155438,324476,529026,453007,480834,599213,13668,-364113,1636551624.2090542,1636551624.228681,30
1096,0,155778,324839,529200,452976,480508,598586,13214,-363925,1636551624.2125099,1636551624.228681,30
1097,0,155529,324678,529199,453167,480888,599044,13116,-364055,1636551624.2125125,1636551624.228681,30
1098,0,154999,324174,528791,452841,480721,599031,12918,-364422,1636551624.2166927,1636551624.228681,30
1099,0,154881,323996,528574,452552,480355,598618,12660,-364546,1636551624.2166953,1636551624.228681,30
1100,0,155067,324204,528853,452798,480582,598867,13012,-364398,1636551624.2204027,1636551624.228681,30
1101,0,155334,324465,529130,453069,480849,599234,13394,-364177,1636551624.220405,1636551624.228681,30
1102,0,155451,324574,529193,453126,480855,599186,13410,-364082,1636551624.224774,1636551624.228681,30
1103,0,155499,324620,529172,453071,480836,599145,13289,-364074,1636551624.224776,1636551624.228681,30
1104,0,155512,324659,529298,453168,480937,599241,13164,-364107,1636551624.2289748,1636551624.228681,30
1105,0,155348,324541,529303,453249,481021,599283,13175,-364260,1636551624.228978,1636551624.228681,30
1106,0,155046,324158,528916,452947,480863,599253,12984,-364503,1636551624.2444296,1636551624.228681,30
1107,0,154907,323979,528752,452841,480904,599617,12748,-364404,1636551624.244436,1636551624.228681,30
1108,0,155279,324364,529064,452991,480747,598849,12849,-364276,1636551624,1636551624.228681,30
1109,0,155473,324611,529242,453064,480757,599031,12458,-364407,1636551624.2444713,1636551624.228681,30
1110,0,155451,324520,529103,452823,480411,598536,13245,-364187,1636551624.2444751,1636551624.228681,30
1111,0,155577,324683,529379,453188,480854,599083,13861,-363800,1636551624.2444756,1636551624.228681,30
1112,0,155546,324684,529456,453359,481144,599475,13701,-363854,1636551624.2444792,1636551624.228681,30
1113,0,155399,324511,529293,453234,481026,599328,13461,-364069,1636551624,1636551624.228681,30
1114,0,155553,324691,529386,453188,480908,599457,13246,-364184,1636551624.260106,1636551624,31
1115,0,155494,324604,529276,453064,480804,599214,13159,-364201,1636551624.2601068,1636551624,31
1116,0,155509,324509,529168,453016,480881,599366,13120,-364168,1636551624.2601097,1636551624,31
1117,0,155603,324618,529363,453239,481119,599721,12086,-364208,1636551624,1636551624,31
1118,0,155677,324769,529501,453306,481122,599603,13212,-364121,1636551624.260237,1636551624,31
1119,0,155430,324527,529299,453118,480829,598907,14122,-364098,1636551624.260238,1636551624,31
1120,0,155568,324691,529394,453179,480899,599035,13507,-364104,1636551624.2648468,1636551624,31
1121,0,155759,324904,529569,453342,481063,599308,13338,-364059,1636551624.264849,1636551624,31
1122,0,156198,325370,530062,453904,481669,599886,13773,-363678,1636551624.2687075,1636551624,31
1123,0,155828,324993,529661,453519,481336,599621,13592,-364049,1636551624.2687097,1636551624,31
1124,0,155074,324221,528860,452710,480571,598941,13001,-364531,1636551624.272426,1636551624,31
1125,0,154796,323901,528623,452556,480463,598809,12871,-364416,1636551624.272427,1636551624,31
1126,0,155354,324381,529031,452947,480807,599179,13308,-363985,1636551624.2766669,1636551624,31
1127,0,155584,324646,529275,453212,481027,599441,13340,-364432,1636551624.2766685,1636551624,31
1128,0,155565,324661,529295,453227,481059,599458,13176,-364393,1636551624.2804716,1636551624,31
1129,0,155789,324908,529547,453490,481379,599811,13015,-364203,1636551624.2804737,1636551624,31
1130,0,155453,324521,529188,453183,481210,599899,12742,-364381,1636551624.284708,1636551624,31
1131,0,155118,324099,528681,452637,480583,599111,13371,-364314,1636551624.2847102,1636551624,31
1132,0,155668,324723,529231,453102,480851,599045,14023,-363767,1636551624.2884636,1636551624,31
1133,0,156055,325253,529761,453634,481384,599656,13918,-363686,1636551624.2884665,1636551624,31
1134,0,155914,325154,529624,453449,481168,599556,13513,-364120,1636551624.293011,1636551624,31
1135,0,155221,324384,528894,452775,480561,599074,12936,-364549,1636551624.293013,1636551624,31
1136,0,155279,324389,528889,452785,480621,599219,13104,-364221,1636551624.296822,1636551624,31
1137,0,155680,324928,529430,453339,481241,600006,13494,-364034,1636551624.2968245,1636551624,31
1138,0,155582,324899,529522,453504,481436,600092,13900,-364205,1636551624.300434,1636551624,31
1139,0,155658,324748,529239,453124,480911,599336,13640,-364121,1636551624.3004365,1636551624,31
1140,0,155494,324622,529059,452914,480743,599173,12936,-364343,1636551624.304386,1636551624,31
1141,0,155181,324341,528811,452703,480572,599082,12771,-364569,1636551624.304387,1636551624,31
1142,0,155462,324649,529106,452956,480816,599365,13172,-364312,1636551624.3083231,1636551624,31
1143,0,155653,324819,529210,453028,480885,599457,13266,-364212,1636551624.308324,1636551624,31
1144,0,155780,324861,529194,452969,480819,599290,13264,-364127,1636551624.3123243,1636551624,31
1145,0,155556,324778,529218,453054,480960,599458,13349,-364258,1636551624.3123262,1636551624,31
1146,0,155353,324634,529168,453105,481113,599617,13470,-364348,1636551624.316347,1636551624,31
1147,0,155547,324769,529241,453113,481113,599600,13497,-364212,1636551624.3163493,1636551624,31
1148,0,155683,324923,529362,453126,481076,599560,13413,-364176,1636551624.3207655,1636551624.382492,32
1149,0,155700,324930,529378,453171,481096,599496,13278,-364189,1636551624.320769,1636551624.382492,32
1150,0,155619,324861,529295,453113,481074,599546,13226,-364252,1636551624.3244205,1636551624.382492,32
1151,0,155524,324755,529171,453016,481050,599652,13253,-364331,1636551624.3244228,1636551624.382492,32
1152,0,155614,324853,529263,453099,481128,599693,13230,-364280,1636551624.3287616,1636551624.382492,32
1153,0,155809,325051,529469,453361,481449,600084,12991,-364201,1636551624.328764,1636551624.382492,32
1154,0,155501,324746,529108,453006,481068,599564,13509,-364271,1636551624.3323455,1636551624.382492,32
1155,0,155158,324372,528781,452780,480986,599476,13503,-364439,1636551624.3323479,1636551624.382492,32
1156,0,155289,324394,528824,452907,481199,599753,13392,-364327,1636551624.336275,1636551624.382492,32
1157,0,155889,325108,529349,453205,481318,599851,13022,-364241,1636551624.3362763,1636551624.382492,32
1158,0,155636,324908,529311,453226,481426,600233,13039,-364477,1636551624.340158,1636551624.382492,32
1159,0,155773,324949,529254,452988,480823,599007,13083,-364267,1636551624.3401592,1636551624.382492,32
1160,0,155738,325079,529376,453076,481033,599604,12961,-364411,1636551624.3478508,1636551624.382492,32
1161,0,156168,325411,529619,453274,481236,599693,13493,-363950,1636551624.347854,1636551624.382492,32
1162,0,156141,325386,529635,453287,481166,599364,13532,-363992,1636551624.3513892,1636551624.382492,32
1163,0,155914,325219,529522,453218,481049,599116,13463,-364169,1636551624.3513916,1636551624.382492,32
1164,0,155752,325088,529464,453294,481360,599827,13304,-364388,1636551624.3529062,1636551624.382492,32
1165,0,155466,324736,529233,453165,481307,599751,13490,-364377,1636551624.3529084,1636551624.382492,32
1166,0,155693,324940,529338,453181,481256,599693,13694,-364054,1636551624.3563564,1636551624.382492,32
1167,0,155908,325114,529470,453284,481367,599803,13213,-364133,1636551624.3563607,1636551624.382492,32
1168,0,156214,325426,529818,453591,481643,600034,13392,-363987,1636551624.3606727,1636551624.382492,32
1169,0,156452,325713,530180,453958,482023,600386,14124,-363547,1636551624.360675,1636551624.382492,32
1170,0,156240,325486,529944,453686,481816,600278,14175,-363811,1636551624.3647056,1636551624.382492,32
1171,0,155198,324420,528857,452643,480773,599241,12779,-364902,1636551624.364708,1636551624.382492,32
1172,0,154758,323923,528371,452182,480354,598847,12585,-364847,1636551624.3687224,1636551624.382492,32
1173,0,155289,324488,528990,452814,480989,599444,13160,-364334,1636551624.368726,1636551624.382492,32
1174,0,155644,324887,529338,453082,481158,599565,13217,-364381,1636551624.3723335,1636551624.382492,32
1175,0,155709,324996,529442,453162,481231,599636,13210,-364417,1636551624.3723347,1636551624.382492,32
1176,0,155519,324746,529352,453188,481379,599857,13346,-364412,1636551624.3761578,1636551624.382492,32
1177,0,155779,325001,529471,453259,481386,599955,13508,-364280,1636551624.3761587,1636551624.382492,32
1178,0,156129,325428,529895,453723,481731,600064,13684,-363987,1636551624.380204,1636551624.382492,32
1179,0,155954,325156,529646,453599,481757,600225,13831,-364140,1636551624.3802063,1636551624.382492,32
1180,0,155713,324889,529236,453114,481187,599684,13374,-364287,1636551624.386425,1636551624.382492,32
1181,0,155783,325036,529354,453153,481026,599429,13170,-364048,1636551624.3864348,1636551624.382492,32
1182,0,155789,325040,529421,453244,481197,599634,13759,-364336,1636551624.3961594,1636551624.451466,33
1183,0,155702,324989,529401,453271,481324,599905,12978,-364646,1636551624.3961616,1636551624.451466,33
1184,0,155759,325021,529379,453286,481419,600080,13226,-364525,1636551624.4001884,1636551624.451466,33
1185,0,155501,324743,529154,453149,481284,599779,13511,-364519,1636551624.4001915,1636551624.451466,33
1186,0,155544,324755,529189,453166,481349,600126,13094,-364547,1636551624.4047751,1636551624.451466,33
1187,0,155726,324944,529277,453129,481145,599701,13356,-364433,1636551624.4047773,1636551624.451466,33
1188,0,155826,325109,529375,453151,481057,599429,13266,-364388,1636551624.4085722,1636551624.451466,33
1189,0,155734,325036,529359,453219,481163,599673,13254,-364480,1636551624.408574,1636551624.451466,33
1190,0,155766,325066,529379,453287,481289,599821,13323,-364409,1636551624.4121203,1636551624.451466,33
