Sample_num,Task_number,EMG1,EMG2,EMG3,EMG4,EMG5,EMG6,EMG7,EMG8,Timestamp,Video_timestamp,Angle_sample
0,0,17031,2762,3782,6898,-9152,-198,3669,-35714,1635432200.6204717,1635432200.620118,0
1,0,17020,2751,3773,6894,-9166,-192,3649,-35719,1635432200.6204822,1635432200.620118,0
2,0,17007,2736,3761,6891,-9154,-172,3652,-35736,1635432200.6204827,1635432200.620118,0
3,0,17003,2729,3752,6880,-9155,-182,3661,-35729,1635432200.6204853,1635432200.620118,0
4,0,17029,2748,3773,6896,-9147,-207,3667,-35709,1635432200.6204855,1635432200.620118,0
5,0,17036,2759,3778,6898,-9148,-212,3676,-35711,1635432200.6204882,1635432200.620118,0
6,0,17034,2754,3769,6884,-9159,-227,3679,-35719,1635432200.6204884,1635432200.620118,0
7,0,17028,2746,3761,6881,-9164,-242,3683,-35718,1635432200.6204908,1635432200.620118,0
8,0,17026,2740,3753,6877,-9176,-266,3685,-35707,1635432200.6204913,1635432200.620118,0
9,0,17033,2740,3754,6872,-9186,-271,3683,-35702,1635432200.6204937,1635432200.620118,0
10,0,17047,2763,3775,6885,-9177,-257,3684,-35716,1635432200.620494,1635432200.620118,0
11,0,17056,2781,3798,6908,-9150,-226,3696,-35715,1635432200.6204965,1635432200.620118,0
12,0,17038,2759,3776,6893,-9155,-168,3693,-35729,1635432200.6204965,1635432200.620118,0
13,0,17031,2743,3758,6859,-9179,-162,3698,-35732,1635432200.620499,1635432200.620118,0
14,0,17036,2749,3769,6851,-9200,-171,3719,-35711,1635432200.6204991,1635432200.620118,0
15,0,17046,2758,3781,6867,-9196,-220,3741,-35714,1635432200.6205015,1635432200.620118,0
16,0,17039,2748,3770,6869,-9206,-325,3699,-35686,1635432200.620502,1635432200.620118,0
17,0,17034,2759,3779,6894,-9172,-281,3659,-35688,1635432200.6205044,1635432200.620118,0
18,0,17022,2752,3774,6896,-9168,-256,3701,-35709,1635432200.6205049,1635432200.620118,0
19,0,17038,2758,3775,6892,-9172,-291,3709,-35697,1635432200.6234713,1635432200.620118,0
20,0,17048,2768,3784,6894,-9180,-273,3721,-35694,1635432200.6234746,1635432200.620118,0
21,0,17031,2751,3771,6879,-9204,-232,3724,-35706,1635432200.628799,1635432200.620118,0
22,0,17006,2729,3751,6859,-9231,-259,3696,-35709,1635432200.6288016,1635432200.620118,0
23,0,17031,2751,3771,6879,-9204,-232,3724,-35706,1635432200.628799,1635432200.773797,1
24,0,17006,2729,3751,6859,-9231,-259,3696,-35709,1635432200.6288016,1635432200.773797,1
25,0,17005,2734,3743,6858,-9229,-357,3668,-35709,1635432200.6344097,1635432200.773797,1
26,0,17031,2768,3774,6898,-9168,-277,3678,-35699,1635432200.6344128,1635432200.773797,1
27,0,17043,2774,3792,6904,-9159,-212,3655,-35697,1635432200.6364715,1635432200.773797,1
28,0,17033,2755,3773,6884,-9172,-184,3670,-35699,1635432200.6364758,1635432200.773797,1
29,0,17033,2755,3763,6866,-9214,-226,3704,-35702,1635432200.6408863,1635432200.773797,1
30,0,17033,2751,3763,6841,-9271,-415,3743,-35697,1635432201,1635432200.773797,1
31,0,17010,2718,3737,6829,-9280,-552,3742,-35705,1635432200.6434388,1635432200.773797,1
32,0,17026,2741,3753,6871,-9205,-436,3716,-35696,1635432200.6434417,1635432200.773797,1
33,0,17038,2780,3798,6928,-9104,-143,3638,-35706,1635432200.6474645,1635432200.773797,1
34,0,16991,2733,3759,6897,-9119,-56,3628,-35744,1635432200.6474693,1635432200.773797,1
35,0,16985,2729,3746,6876,-9160,-122,3670,-35739,1635432201,1635432200.773797,1
36,0,17013,2751,3766,6879,-9159,-167,3689,-35722,1635432200.6516342,1635432200.773797,1
37,0,17033,2767,3784,6900,-9137,-177,3711,-35717,1635432200.655283,1635432200.773797,1
38,0,17020,2761,3793,6914,-9127,-199,3728,-35712,1635432200.6552863,1635432200.773797,1
39,0,17018,2761,3793,6904,-9148,-214,3723,-35709,1635432200.660837,1635432200.773797,1
40,0,17033,2771,3799,6889,-9182,-211,3720,-35709,1635432200.6608403,1635432200.773797,1
41,0,17031,2771,3792,6876,-9239,-205,3715,-35712,1635432200.6634293,1635432200.773797,1
42,0,17016,2767,3789,6874,-9215,-179,3729,-35725,1635432200.663435,1635432200.773797,1
43,0,17007,2753,3763,6865,-9136,-209,3704,-35704,1635432200.6675105,1635432200.773797,1
44,0,17023,2763,3771,6879,-9181,-272,3649,-35691,1635432200.667524,1635432200.773797,1
45,0,17018,2761,3776,6889,-9214,-307,3676,-35701,1635432200.671391,1635432200.773797,1
46,0,17014,2755,3766,6871,-9193,-289,3699,-35696,1635432200.6713965,1635432200.773797,1
47,0,17024,2763,3779,6876,-9167,-232,3738,-35697,1635432200.6754377,1635432200.773797,1
48,0,17021,2758,3778,6873,-9166,-225,3759,-35691,1635432200.675444,1635432200.773797,1
49,0,17022,2761,3774,6861,-9189,-218,3748,-35681,1635432200.679978,1635432200.773797,1
50,0,17029,2780,3789,6889,-9174,-190,3753,-35679,1635432200.679984,1635432200.773797,1
51,0,17030,2772,3778,6884,-9200,-348,3719,-35685,1635432200.6839738,1635432200.773797,1
52,0,17019,2751,3754,6853,-9218,-365,3700,-35696,1635432200.6839805,1635432200.773797,1
53,0,17031,2781,3786,6891,-9162,-222,3666,-35701,1635432200.6875124,1635432200.773797,1
54,0,17041,2798,3808,6918,-9116,-187,3659,-35714,1635432200.6875172,1635432200.773797,1
55,0,17026,2774,3793,6898,-9136,-187,3676,-35712,1635432200.691324,1635432200.773797,1
56,0,17015,2754,3776,6866,-9187,-162,3708,-35706,1635432200.691328,1635432200.773797,1
57,0,17010,2743,3758,6841,-9231,-219,3738,-35701,1635432200.6952312,1635432200.773797,1
58,0,17011,2748,3764,6851,-9241,-390,3753,-35690,1635432200.6952357,1635432200.773797,1
59,0,17013,2752,3771,6859,-9209,-470,3724,-35682,1635432200.6994367,1635432200.773797,1
60,0,17021,2773,3788,6889,-9151,-321,3640,-35692,1635432200.6994476,1635432200.773797,1
61,0,16987,2743,3766,6887,-9138,-181,3626,-35727,1635432200.7033317,1635432200.773797,1
62,0,16991,2739,3763,6883,-9134,-117,3687,-35745,1635432200.7033381,1635432200.773797,1
63,0,17033,2781,3812,6930,-9092,-94,3728,-35722,1635432200.707502,1635432200.773797,1
64,0,17043,2788,3806,6916,-9129,-157,3691,-35693,1635432200.7075083,1635432200.773797,1
65,0,17023,2766,3786,6889,-9162,-197,3694,-35689,1635432200.7113073,1635432200.773797,1
66,0,17022,2766,3780,6884,-9171,-206,3709,-35697,1635432200.7113116,1635432200.773797,1
67,0,17018,2758,3768,6871,-9176,-217,3704,-35696,1635432201,1635432200.773797,1
68,0,17024,2766,3781,6895,-9146,-213,3708,-35683,1635432200.7154548,1635432200.773797,1
69,0,17042,2794,3803,6913,-9137,-216,3715,-35682,1635432200.7208464,1635432200.773797,1
70,0,17029,2785,3791,6898,-9153,-222,3710,-35699,1635432200.7208552,1635432200.773797,1
71,0,17039,2793,3802,6914,-9123,-173,3752,-35744,1635432200.7234602,1635432200.773797,1
72,0,17044,2790,3806,6916,-9106,-147,3784,-35748,1635432200.723467,1635432200.773797,1
73,0,17001,2758,3786,6893,-9147,-212,3709,-35686,1635432200.7274745,1635432200.773797,1
74,0,16996,2743,3768,6859,-9192,-270,3703,-35647,1635432200.727484,1635432200.773797,1
75,0,17023,2764,3776,6857,-9208,-321,3773,-35650,1635432200.735675,1635432200.773797,1
76,0,17036,2773,3790,6864,-9192,-368,3766,-35656,1635432200.7357156,1635432200.773797,1
77,0,17028,2772,3791,6863,-9174,-304,3705,-35660,1635432200.739559,1635432200.773797,1
78,0,17009,2771,3796,6892,-9122,-174,3659,-35684,1635432200.7395637,1635432200.773797,1
79,0,16992,2753,3776,6878,-9139,-159,3694,-35702,1635432200.7409735,1635432200.773797,1
80,0,16991,2751,3776,6882,-9152,-257,3687,-35694,1635432200.7409763,1635432200.773797,1
81,0,16981,2739,3779,6895,-9131,-213,3678,-35709,1635432200.7433863,1635432200.773797,1
82,0,16985,2738,3782,6887,-9143,-201,3699,-35711,1635432200.7433913,1635432200.773797,1
83,0,17006,2759,3794,6890,-9154,-220,3707,-35696,1635432200.7474227,1635432200.773797,1
84,0,16996,2746,3778,6876,-9157,-194,3703,-35696,1635432200.7474294,1635432200.773797,1
85,0,16995,2747,3779,6879,-9133,-186,3707,-35695,1635432200.753461,1635432200.773797,1
86,0,16991,2751,3782,6876,-9143,-194,3726,-35692,1635432200.7534668,1635432200.773797,1
87,0,16993,2748,3779,6871,-9137,-205,3733,-35699,1635432200.7552905,1635432200.773797,1
88,0,17018,2766,3796,6890,-9138,-200,3719,-35689,1635432200.7553132,1635432200.773797,1
89,0,17013,2756,3791,6868,-9217,-222,3690,-35694,1635432200.7740905,1635432200.773797,1
90,0,17010,2757,3795,6880,-9211,-200,3691,-35702,1635432200.7740953,1635432200.773797,1
91,0,17011,2759,3799,6891,-9146,-191,3720,-35696,1635432200.7741055,1635432200.773797,1
92,0,17029,2768,3803,6891,-9139,-236,3731,-35689,1635432200.7741063,1635432200.773797,1
93,0,17031,2769,3804,6898,-9116,-328,3760,-35692,1635432200.774109,1635432200.773797,1
94,0,17019,2756,3796,6881,-9137,-292,3762,-35687,1635432200.7741091,1635432200.773797,1
95,0,17019,2755,3798,6873,-9161,-259,3700,-35677,1635432200.7741115,1635432200.773797,1
96,0,16987,2728,3774,6854,-9159,-262,3717,-35697,1635432200.774112,1635432200.773797,1
97,0,16974,2714,3761,6836,-9159,-203,3761,-35699,1635432200.776363,1635432200.773797,1
98,0,16976,2710,3764,6844,-9161,-229,3759,-35697,1635432200.776366,1635432200.773797,1
99,0,17014,2759,3822,6932,-9052,-134,3681,-35701,1635432200.7801576,1635432201,2
100,0,16997,2754,3809,6915,-9067,-149,3706,-35706,1635432200.7835567,1635432201,2
101,0,16990,2746,3792,6899,-9090,-177,3708,-35710,1635432200.7835665,1635432201,2
102,0,16996,2746,3789,6889,-9105,-219,3721,-35695,1635432200.7874887,1635432201,2
103,0,17006,2750,3798,6888,-9116,-244,3709,-35689,1635432200.787495,1635432201,2
104,0,16997,2748,3799,6895,-9117,-197,3711,-35702,1635432200.791504,1635432201,2
105,0,16997,2744,3790,6880,-9137,-205,3741,-35694,1635432200.791509,1635432201,2
106,0,17004,2747,3800,6890,-9115,-201,3726,-35695,1635432200.7957222,1635432201,2
107,0,17005,2743,3808,6896,-9104,-194,3715,-35691,1635432200.7957263,1635432201,2
108,0,16994,2730,3799,6894,-9107,-200,3693,-35696,1635432200.801186,1635432201,2
109,0,16963,2699,3773,6871,-9121,-163,3728,-35724,1635432200.8012486,1635432201,2
110,0,16973,2718,3785,6863,-9129,-171,3749,-35699,1635432200.8036573,1635432201,2
111,0,16994,2737,3803,6876,-9102,-196,3698,-35674,1635432200.8036687,1635432201,2
112,0,16993,2729,3803,6888,-9094,-207,3699,-35694,1635432200.8080645,1635432201,2
113,0,16999,2732,3810,6912,-9161,-262,3713,-35711,1635432200.808068,1635432201,2
114,0,17025,2761,3836,6929,-9130,-223,3726,-35705,1635432200.8116941,1635432201,2
115,0,17008,2744,3814,6900,-9103,-188,3725,-35699,1635432200.8116963,1635432201,2
116,0,16991,2736,3802,6894,-9097,-204,3724,-35682,1635432200.8154948,1635432201,2
117,0,16991,2744,3803,6898,-9106,-209,3736,-35684,1635432200.815526,1635432201,2
118,0,16997,2742,3803,6893,-9112,-213,3728,-35684,1635432200.8197265,1635432201,2
119,0,16993,2738,3805,6889,-9121,-205,3711,-35688,1635432200.8197324,1635432201,2
120,0,17000,2749,3818,6903,-9097,-169,3722,-35687,1635432200.823694,1635432201,2
121,0,17011,2767,3825,6916,-9074,-146,3738,-35684,1635432200.8237045,1635432201,2
122,0,16999,2754,3808,6890,-9112,-202,3750,-35688,1635432200.8275192,1635432201,2
123,0,16988,2741,3793,6869,-9154,-254,3769,-35686,1635432200.8275242,1635432201,2
124,0,16986,2739,3792,6869,-9159,-247,3758,-35679,1635432200.8330123,1635432201,2
125,0,17003,2762,3819,6902,-9105,-189,3721,-35681,1635432200.8330238,1635432201,2
126,0,17008,2764,3828,6914,-9088,-274,3724,-35682,1635432200.8359025,1635432201,2
127,0,17013,2764,3836,6922,-9077,-264,3731,-35678,1635432200.8359363,1635432201,2
128,0,17031,2792,3856,6921,-9098,-195,3767,-35679,1635432200.8394012,1635432201,2
129,0,17028,2776,3831,6893,-9139,-233,3794,-35672,1635432200.8394055,1635432201,2
130,0,16984,2735,3800,6883,-9129,-237,3749,-35677,1635432200.8434455,1635432200.921044,3
131,0,16969,2724,3793,6893,-9106,-231,3728,-35704,1635432200.843449,1635432200.921044,3
132,0,16968,2719,3798,6894,-9070,-137,3705,-35710,1635432200.849641,1635432200.921044,3
133,0,16940,2693,3777,6875,-9089,-129,3682,-35711,1635432200.8496487,1635432200.921044,3
134,0,16961,2716,3796,6900,-9084,-141,3696,-35695,1635432200.8519707,1635432200.921044,3
135,0,16974,2731,3802,6904,-9087,-169,3709,-35684,1635432200.8519804,1635432200.921044,3
136,0,16976,2733,3806,6901,-9099,-183,3726,-35690,1635432200.8553748,1635432200.921044,3
137,0,16976,2729,3808,6898,-9103,-172,3730,-35688,1635432200.8553793,1635432200.921044,3
138,0,16991,2737,3811,6891,-9102,-166,3743,-35686,1635432200.8593185,1635432200.921044,3
139,0,16986,2730,3807,6893,-9091,-141,3786,-35706,1635432200.859324,1635432200.921044,3
140,0,16974,2722,3798,6885,-9097,-202,3731,-35691,1635432200.8649192,1635432200.921044,3
141,0,16966,2720,3806,6884,-9136,-271,3718,-35683,1635432200.8649273,1635432200.921044,3
142,0,16994,2741,3828,6905,-9167,-227,3769,-35687,1635432200.8682005,1635432200.921044,3
143,0,17000,2742,3828,6906,-9177,-232,3752,-35674,1635432200.868231,1635432200.921044,3
144,0,16984,2728,3808,6883,-9121,-241,3729,-35671,1635432200.8715296,1635432200.921044,3
145,0,16979,2723,3798,6866,-9103,-209,3724,-35682,1635432200.8715346,1635432200.921044,3
146,0,16981,2728,3804,6894,-9046,-168,3714,-35687,1635432200.875693,1635432200.921044,3
147,0,16991,2736,3811,6925,-9028,-137,3704,-35688,1635432200.8756993,1635432200.921044,3
148,0,16977,2720,3805,6908,-9056,-142,3719,-35698,1635432200.8804336,1635432200.921044,3
149,0,16984,2734,3814,6904,-9066,-152,3742,-35698,1635432200.880439,1635432200.921044,3
150,0,16988,2727,3806,6898,-9085,-170,3751,-35691,1635432200.884046,1635432200.921044,3
151,0,16986,2721,3802,6894,-9100,-207,3747,-35683,1635432200.8840609,1635432200.921044,3
152,0,16979,2720,3809,6905,-9072,-227,3748,-35676,1635432200.8876348,1635432200.921044,3
153,0,16993,2735,3820,6916,-9070,-202,3727,-35678,1635432200.8876455,1635432200.921044,3
154,0,16986,2724,3807,6901,-9088,-170,3738,-35696,1635432200.8917847,1635432200.921044,3
155,0,16994,2734,3821,6924,-9064,-166,3738,-35687,1635432200.8917906,1635432200.921044,3
156,0,16992,2734,3829,6926,-9061,-169,3735,-35688,1635432200.895728,1635432200.921044,3
157,0,16983,2721,3815,6910,-9082,-173,3738,-35691,1635432200.895734,1635432200.921044,3
158,0,16982,2718,3811,6906,-9081,-189,3734,-35693,1635432200.9007945,1635432200.921044,3
159,0,16968,2706,3811,6898,-9051,-194,3744,-35699,1635432200.9008248,1635432200.921044,3
160,0,16954,2700,3807,6891,-9129,-246,3758,-35694,1635432200.9035323,1635432200.921044,3
161,0,16944,2686,3793,6883,-9188,-274,3768,-35694,1635432200.9035375,1635432200.921044,3
162,0,16942,2678,3793,6901,-9094,-158,3768,-35693,1635432200.9076777,1635432200.921044,3
163,0,16951,2691,3806,6935,-8996,-28,3724,-35701,1635432200.9076848,1635432200.921044,3
164,0,16954,2699,3805,6926,-9032,-101,3714,-35716,1635432200.911438,1635432200.921044,3
165,0,16962,2699,3789,6894,-9066,-201,3726,-35701,1635432200.9114404,1635432200.921044,3
166,0,16986,2726,3808,6911,-9045,-170,3733,-35697,1635432200.9155743,1635432200.921044,3
167,0,17003,2746,3826,6919,-9060,-171,3734,-35694,1635432200.915586,1635432200.921044,3
168,0,17002,2741,3829,6913,-9074,-195,3738,-35687,1635432200.9195669,1635432200.921044,3
169,0,17013,2753,3831,6907,-9104,-210,3776,-35676,1635432200.919573,1635432200.921044,3
170,0,17023,2763,3841,6906,-9121,-261,3789,-35674,1635432200.9239829,1635432200.921044,3
171,0,17012,2758,3836,6894,-9131,-315,3798,-35667,1635432200.923987,1635432200.921044,3
172,0,16983,2746,3838,6951,-9007,-91,3697,-35708,1635432200.9315183,1635432201,4
173,0,16978,2738,3826,6920,-9045,-103,3711,-35720,1635432200.9315245,1635432201,4
174,0,16983,2734,3824,6912,-9076,-128,3718,-35711,1635432200.935934,1635432201,4
175,0,16965,2714,3813,6903,-9115,-186,3729,-35705,1635432200.935943,1635432201,4
176,0,16950,2690,3783,6879,-9167,-179,3724,-35706,1635432200.939757,1635432201,4
177,0,16957,2699,3767,6864,-9141,-159,3728,-35704,1635432200.9397633,1635432201,4
178,0,16964,2714,3776,6901,-9022,-147,3740,-35704,1635432200.943885,1635432201,4
179,0,16974,2712,3789,6904,-9022,-179,3726,-35696,1635432200.943898,1635432201,4
180,0,16978,2723,3806,6892,-9041,-190,3723,-35686,1635432200.9474375,1635432201,4
181,0,16978,2725,3830,6906,-9043,-182,3736,-35687,1635432200.947443,1635432201,4
182,0,16973,2711,3822,6923,-9026,-172,3736,-35695,1635432200.9519615,1635432201,4
183,0,16979,2709,3823,6904,-9063,-164,3750,-35687,1635432200.9519844,1635432201,4
184,0,16988,2710,3828,6887,-9090,-204,3761,-35676,1635432200.955726,1635432201,4
185,0,16989,2710,3816,6884,-9116,-252,3764,-35667,1635432200.955732,1635432201,4
186,0,16979,2704,3813,6897,-9070,-231,3746,-35682,1635432200.9598455,1635432201,4
187,0,16953,2689,3802,6898,-9057,-226,3738,-35708,1635432200.9598513,1635432201,4
188,0,16954,2698,3817,6933,-8996,-184,3759,-35708,1635432200.9637573,1635432201,4
189,0,16974,2716,3844,6968,-9063,-186,3771,-35695,1635432200.9637628,1635432201,4
190,0,16965,2706,3844,6944,-9087,-187,3763,-35686,1635432200.9692025,1635432201,4
191,0,16934,2689,3828,6924,-9020,-142,3726,-35704,1635432201,1635432201,4
192,0,16911,2663,3803,6919,-9032,-107,3744,-35712,1635432200.971753,1635432201,4
193,0,16892,2646,3788,6919,-9104,-121,3751,-35710,1635432200.9717584,1635432201,4
194,0,16906,2645,3774,6896,-9108,-154,3721,-35710,1635432200.9756749,1635432201,4
195,0,16909,2646,3773,6866,-9047,-159,3732,-35716,1635432200.975682,1635432201,4
196,0,16929,2665,3798,6861,-9097,-197,3743,-35704,1635432200.9803407,1635432201,4
197,0,16949,2687,3826,6922,-9060,-156,3777,-35702,1635432200.9803464,1635432201,4
198,0,16937,2674,3812,6931,-9002,-144,3774,-35696,1635432200.9835265,1635432201,4
199,0,16944,2673,3779,6885,-9022,-179,3753,-35689,1635432200.9835322,1635432201,4
200,0,16964,2694,3769,6867,-9040,-171,3779,-35700,1635432200.9875684,1635432201,4
201,0,16982,2718,3793,6894,-8991,-198,3723,-35691,1635432200.9875743,1635432201,4
202,0,17016,2764,3826,6911,-9017,-189,3740,-35705,1635432200.9915478,1635432201,4
203,0,17052,2813,3879,6939,-9014,-127,3823,-35734,1635432200.991552,1635432201,4
204,0,17054,2796,3838,6906,-9054,-132,3830,-35639,1635432200.9953492,1635432201,4
205,0,17038,2786,3833,6926,-9032,-154,3776,-35584,1635432200.995354,1635432201,4
206,0,17054,2796,3838,6906,-9054,-132,3830,-35639,1635432200.9953492,1635432201.075275,5
207,0,17038,2786,3833,6926,-9032,-154,3776,-35584,1635432200.995354,1635432201.075275,5
208,0,17028,2804,3883,6966,-8969,-112,3788,-35668,1635432201.0005205,1635432201.075275,5
209,0,17037,2816,3909,7006,-8926,-120,3769,-35722,1635432201.000552,1635432201.075275,5
210,0,16996,2758,3867,6969,-8989,-118,3800,-35739,1635432201.0035975,1635432201.075275,5
211,0,16977,2745,3828,6915,-9158,-126,3810,-35779,1635432201.0036073,1635432201.075275,5
212,0,17016,2761,3759,6858,-9291,-112,3822,-35780,1635432201.0074735,1635432201.075275,5
213,0,17022,2763,3739,6883,-9181,-91,3834,-35744,1635432201.0074775,1635432201.075275,5
214,0,16941,2703,3749,6919,-8979,-103,3785,-35719,1635432201.0113933,1635432201.075275,5
215,0,16826,2578,3709,6816,-9060,-238,3671,-35685,1635432201.011396,1635432201.075275,5
216,0,16814,2546,3758,6826,-9055,-334,3616,-35637,1635432201.0164127,1635432201.075275,5
217,0,16918,2660,3859,6923,-9012,-254,3724,-35514,1635432201.0164335,1635432201.075275,5
218,0,16990,2740,3894,6978,-8966,-155,3806,-35519,1635432201.0202456,1635432201.075275,5
219,0,16951,2705,3841,6944,-8988,-160,3774,-35718,1635432201.020254,1635432201.075275,5
220,0,16981,2730,3867,6969,-8974,-151,3771,-35709,1635432201.0234478,1635432201.075275,5
221,0,17038,2779,3912,7003,-8939,-112,3820,-35557,1635432201.0234523,1635432201.075275,5
222,0,17020,2761,3879,6974,-8972,-139,3796,-35574,1635432201.0277781,1635432201.075275,5
223,0,16971,2694,3796,6904,-9048,-206,3733,-35704,1635432201.027784,1635432201.075275,5
224,0,16922,2628,3722,6829,-9109,-232,3730,-35727,1635432201.0314949,1635432201.075275,5
225,0,16888,2594,3662,6759,-9196,-331,3639,-35759,1635432201.0314994,1635432201.075275,5
226,0,16951,2671,3726,6805,-9162,-315,3664,-35662,1635432201.0357757,1635432201.075275,5
227,0,16957,2695,3766,6846,-9121,-272,3709,-35704,1635432201.035781,1635432201.075275,5
228,0,17006,2764,3838,6929,-9041,-196,3738,-35779,1635432201.0394156,1635432201.075275,5
229,0,16986,2749,3830,6935,-9033,-191,3731,-35816,1635432201.039421,1635432201.075275,5
230,0,16893,2626,3721,6826,-9139,-288,3664,-35729,1635432201.0442283,1635432201.075275,5
231,0,16889,2601,3681,6778,-9186,-324,3649,-35707,1635432201.0442343,1635432201.075275,5
232,0,16946,2658,3726,6817,-9146,-277,3693,-35746,1635432201.0474803,1635432201.075275,5
233,0,16947,2670,3736,6832,-9133,-267,3703,-35721,1635432201.047486,1635432201.075275,5
234,0,16935,2679,3754,6854,-9117,-256,3703,-35713,1635432201.0518723,1635432201.075275,5
235,0,16940,2683,3758,6856,-9122,-256,3709,-35709,1635432201.0518787,1635432201.075275,5
236,0,16931,2663,3741,6843,-9136,-269,3699,-35708,1635432201.0571935,1635432201.075275,5
237,0,16920,2663,3733,6839,-9129,-263,3699,-35711,1635432201.0571997,1635432201.075275,5
238,0,16933,2673,3749,6874,-9091,-229,3723,-35688,1635432201.0598063,1635432201.075275,5
239,0,16956,2701,3775,6906,-9059,-201,3751,-35661,1635432201.059821,1635432201.075275,5
240,0,16939,2675,3744,6869,-9081,-215,3743,-35742,1635432201.0644178,1635432201.075275,5
241,0,16966,2682,3735,6850,-9101,-232,3713,-35769,1635432201.0644295,1635432201.075275,5
242,0,17036,2748,3786,6867,-9095,-237,3706,-35726,1635432201.075569,1635432201.075275,5
243,0,17032,2756,3795,6879,-9089,-221,3721,-35718,1635432201.075577,1635432201.075275,5
244,0,16992,2734,3791,6892,-9075,-189,3760,-35736,1635432201.0755897,1635432201.075275,5
245,0,16961,2715,3781,6893,-9075,-189,3771,-35737,1635432201.0755908,1635432201.075275,5
246,0,16948,2722,3801,6904,-9074,-231,3703,-35706,1635432201.075594,1635432201.075275,5
247,0,16934,2705,3794,6896,-9074,-219,3722,-35707,1635432201.0755942,1635432201.075275,5
248,0,16956,2701,3775,6906,-9059,-201,3751,-35661,1635432201.059821,1635432201.137752,6
249,0,16939,2675,3744,6869,-9081,-215,3743,-35742,1635432201.0644178,1635432201.137752,6
250,0,16966,2682,3735,6850,-9101,-232,3713,-35769,1635432201.0644295,1635432201.137752,6
251,0,17036,2748,3786,6867,-9095,-237,3706,-35726,1635432201.075569,1635432201.137752,6
252,0,17032,2756,3795,6879,-9089,-221,3721,-35718,1635432201.075577,1635432201.137752,6
253,0,16992,2734,3791,6892,-9075,-189,3760,-35736,1635432201.0755897,1635432201.137752,6
254,0,16961,2715,3781,6893,-9075,-189,3771,-35737,1635432201.0755908,1635432201.137752,6
255,0,16948,2722,3801,6904,-9074,-231,3703,-35706,1635432201.075594,1635432201.137752,6
256,0,16934,2705,3794,6896,-9074,-219,3722,-35707,1635432201.0755942,1635432201.137752,6
257,0,16905,2688,3788,6890,-9070,-207,3739,-35711,1635432201.0830812,1635432201.137752,6
258,0,16904,2699,3801,6913,-9049,-194,3743,-35719,1635432201.0830927,1635432201.137752,6
259,0,16916,2701,3783,6904,-9059,-187,3743,-35719,1635432201.0833328,1635432201.137752,6
260,0,16934,2704,3763,6880,-9072,-186,3735,-35717,1635432201.0833375,1635432201.137752,6
261,0,16953,2724,3786,6883,-9073,-186,3738,-35722,1635432201.0874937,1635432201.137752,6
262,0,16972,2741,3821,6903,-9063,-172,3751,-35721,1635432201.0874984,1635432201.137752,6
263,0,16981,2741,3824,6916,-9063,-177,3759,-35721,1635432201.0923312,1635432201.137752,6
264,0,16997,2747,3813,6918,-9072,-206,3747,-35721,1635432201.092337,1635432201.137752,6
265,0,17009,2751,3805,6901,-9091,-202,3759,-35728,1635432201.0958204,1635432201.137752,6
266,0,17012,2770,3818,6895,-9146,-220,3741,-35705,1635432201.095826,1635432201.137752,6
267,0,17004,2759,3807,6893,-9165,-205,3760,-35710,1635432201.0995777,1635432201.137752,6
268,0,17020,2767,3816,6912,-9081,-165,3779,-35720,1635432201,1635432201.137752,6
269,0,17026,2746,3795,6909,-9039,-146,3800,-35726,1635432201.103881,1635432201.137752,6
270,0,17018,2727,3777,6892,-9042,-184,3744,-35727,1635432201.103887,1635432201.137752,6
271,0,17016,2723,3761,6873,-9069,-231,3706,-35717,1635432201.1075077,1635432201.137752,6
272,0,16943,2708,3749,6888,-9075,-205,3743,-35723,1635432201.1075137,1635432201.137752,6
273,0,16869,2690,3758,6898,-9067,-191,3753,-35716,1635432201.111738,1635432201.137752,6
274,0,16896,2728,3798,6914,-9061,-199,3741,-35714,1635432201.1117437,1635432201.137752,6
275,0,16924,2753,3816,6915,-9065,-204,3744,-35708,1635432201.1156316,1635432201.137752,6
276,0,16928,2742,3803,6892,-9081,-223,3724,-35705,1635432201.1156416,1635432201.137752,6
277,0,16948,2751,3790,6891,-9077,-215,3736,-35712,1635432201.1198516,1635432201.137752,6
278,0,16950,2749,3799,6898,-9066,-198,3746,-35717,1635432201.1198573,1635432201.137752,6
279,0,16943,2762,3824,6937,-9026,-168,3763,-35736,1635432201.1682692,1635432201.207187,7
280,0,16945,2764,3813,6926,-9027,-165,3766,-35743,1635432201.1682696,1635432201.207187,7
281,0,16948,2771,3800,6901,-9027,-178,3762,-35755,1635432201.1682718,1635432201.207187,7
282,0,16947,2768,3786,6890,-9054,-187,3751,-35762,1635432201.168272,1635432201.207187,7
283,0,16951,2759,3760,6885,-9146,-233,3732,-35729,1635432201.168275,1635432201.207187,7
284,0,16946,2732,3729,6855,-9127,-232,3738,-35655,1635432201.168275,1635432201.207187,7
285,0,16951,2729,3752,6853,-9074,-217,3755,-35669,1635432201.1682775,1635432201.207187,7
286,0,16963,2767,3804,6902,-9025,-208,3743,-35700,1635432201.1682777,1635432201.207187,7
287,0,16961,2770,3805,6913,-9027,-200,3744,-35701,1635432201,1635432201.207187,7
288,0,16966,2783,3818,6931,-9020,-192,3759,-35711,1635432201.1682804,1635432201.207187,7
289,0,16998,2807,3852,6944,-9009,-163,3786,-35680,1635432201.1682827,1635432201.207187,7
290,0,17026,2824,3866,6969,-8967,-121,3799,-35665,1635432201.1682832,1635432201.207187,7
291,0,17036,2844,3866,6978,-8946,-114,3812,-35699,1635432201.1682856,1635432201.207187,7
292,0,17016,2829,3838,6953,-8966,-119,3798,-35731,1635432201.1682858,1635432201.207187,7
293,0,16961,2770,3768,6883,-9067,-169,3759,-35762,1635432201.1717277,1635432201.207187,7
294,0,16876,2681,3677,6808,-9146,-245,3715,-35764,1635432201.1717336,1635432201.207187,7
295,0,16851,2631,3631,6776,-9141,-299,3693,-35727,1635432201.1761367,1635432201.207187,7
296,0,16896,2681,3698,6828,-9126,-296,3736,-35714,1635432201.1761432,1635432201.207187,7
297,0,16938,2758,3791,6891,-9089,-283,3781,-35703,1635432201.180416,1635432201.207187,7
298,0,16957,2787,3811,6896,-9118,-305,3753,-35667,1635432201.1804216,1635432201.207187,7
299,0,16936,2756,3772,6884,-9105,-259,3778,-35659,1635432201.1834571,1635432201.207187,7
300,0,16933,2765,3783,6911,-9030,-175,3785,-35687,1635432201.1834629,1635432201.207187,7
301,0,16961,2817,3833,6958,-8975,-116,3820,-35705,1635432201.1879241,1635432201.207187,7
302,0,17020,2910,3936,7051,-8907,-17,3901,-35751,1635432201.1879303,1635432201.207187,7
303,0,17011,2941,3980,7119,-8895,29,3906,-35858,1635432201.1919272,1635432201.207187,7
304,0,17001,2946,4003,7163,-8842,34,3896,-35825,1635432201.1919355,1635432201.207187,7
305,0,16968,2916,3986,7138,-8792,1,3866,-35735,1635432201.195438,1635432201.207187,7
306,0,16829,2706,3766,6881,-9004,-208,3720,-35645,1635432201.195443,1635432201.207187,7
307,0,16709,2495,3518,6628,-9222,-442,3574,-35640,1635432201.1999452,1635432201.207187,7
308,0,16849,2614,3628,6749,-9163,-340,3662,-35614,1635432201.1999533,1635432201.207187,7
309,0,16918,2685,3709,6836,-9101,-271,3723,-35615,1635432201.203882,1635432201.207187,7
310,0,16921,2682,3704,6845,-9051,-215,3743,-35704,1635432201.203888,1635432201.207187,7
311,0,16932,2715,3737,6887,-8991,-141,3793,-35828,1635432201.2075338,1635432201.207187,7
312,0,16979,2790,3794,6914,-8985,-172,3731,-35793,1635432201.2075405,1635432201.207187,7
313,0,16935,2754,3746,6845,-9059,-245,3701,-35727,1635432201.2116284,1635432201.207187,7
314,0,16851,2649,3642,6741,-9154,-311,3690,-35668,1635432201.2116356,1635432201.207187,7
315,0,16858,2668,3658,6758,-9142,-316,3681,-35686,1635432201.2156477,1635432201.207187,7
316,0,16881,2706,3699,6812,-9099,-274,3706,-35699,1635432201.2156608,1635432201.207187,7
317,0,16863,2699,3704,6821,-9092,-272,3724,-35710,1635432201.2193902,1635432201.207187,7
318,0,16911,2756,3761,6863,-9065,-279,3722,-35704,1635432201.219394,1635432201.207187,7
319,0,16909,2754,3743,6874,-9049,-260,3741,-35706,1635432201.2234204,1635432201.207187,7
320,0,16898,2741,3731,6872,-9040,-253,3754,-35710,1635432201.223424,1635432201.207187,7
321,0,16896,2745,3743,6886,-9018,-219,3764,-35717,1635432201.2274697,1635432201.275918,8
322,0,16890,2744,3754,6896,-8992,-159,3776,-35730,1635432201.2274723,1635432201.275918,8
323,0,16881,2731,3744,6877,-9007,-162,3747,-35721,1635432201.2336392,1635432201.275918,8
324,0,16892,2743,3747,6875,-9009,-246,3748,-35711,1635432201.2336464,1635432201.275918,8
325,0,16934,2778,3786,6869,-9034,-277,3797,-35694,1635432201.235514,1635432201.275918,8
326,0,16967,2802,3821,6864,-9162,-311,3846,-35672,1635432201.2355185,1635432201.275918,8
327,0,16973,2816,3816,6858,-9164,-326,3859,-35673,1635432201.2393634,1635432201.275918,8
328,0,16946,2797,3789,6854,-9087,-279,3851,-35692,1635432201.2393713,1635432201.275918,8
329,0,16921,2763,3762,6860,-9030,-276,3811,-35716,1635432201.247363,1635432201.275918,8
330,0,16938,2774,3771,6889,-9024,-318,3723,-35730,1635432201.2473683,1635432201.275918,8
331,0,16933,2784,3781,6912,-9012,-231,3692,-35722,1635432201.2519205,1635432201.275918,8
332,0,16906,2768,3775,6889,-9029,-199,3699,-35728,1635432201.251926,1635432201.275918,8
333,0,16885,2752,3763,6866,-9059,-269,3719,-35736,1635432201.2520137,1635432201.275918,8
334,0,16871,2738,3761,6888,-9027,-229,3756,-35737,1635432201.252016,1635432201.275918,8
335,0,16883,2746,3783,6933,-9004,-294,3758,-35752,1635432201.2559164,1635432201.275918,8
336,0,16881,2739,3778,6918,-9001,-224,3757,-35744,1635432201.2559226,1635432201.275918,8
337,0,16897,2743,3766,6885,-9027,-196,3755,-35707,1635432201.2599187,1635432201.275918,8
338,0,16893,2739,3740,6831,-9077,-179,3793,-35700,1635432201.2599244,1635432201.275918,8
339,0,16897,2747,3739,6816,-9060,-166,3813,-35709,1635432201.2644224,1635432201.275918,8
340,0,16930,2786,3788,6872,-9022,-271,3836,-35696,1635432201.2644277,1635432201.275918,8
341,0,16946,2792,3806,6894,-9028,-396,3861,-35686,1635432201.267751,1635432201.275918,8
342,0,16900,2733,3737,6856,-9074,-365,3858,-35704,1635432201.2677577,1635432201.275918,8
343,0,16908,2749,3751,6877,-9045,-289,3799,-35717,1635432201.2719257,1635432201.275918,8
344,0,16917,2793,3788,6934,-8960,-214,3738,-35734,1635432201.2719312,1635432201.275918,8
345,0,16863,2751,3743,6899,-8956,-161,3710,-35727,1635432201.276099,1635432201.275918,8
346,0,16861,2756,3762,6909,-8937,-119,3704,-35687,1635432201.276104,1635432201.275918,8
347,0,16866,2770,3779,6917,-8899,-12,3734,-35673,1635432201.281068,1635432201.275918,8
348,0,16861,2761,3786,6944,-8871,-4,3766,-35632,1635432201.2810748,1635432201.275918,8
349,0,16859,2753,3771,6941,-8909,-87,3746,-35711,1635432201.283592,1635432201.275918,8
350,0,16807,2676,3683,6844,-9002,-193,3695,-35884,1635432201.2836137,1635432201.275918,8
351,0,16861,2717,3716,6867,-8989,-172,3759,-35827,1635432201,1635432201.275918,8
352,0,16952,2818,3814,6944,-8947,-186,3773,-35757,1635432201.2874827,1635432201.275918,8
353,0,16929,2797,3788,6915,-8975,-217,3804,-35758,1635432201.2914765,1635432201.275918,8
354,0,16934,2811,3803,6919,-8961,-194,3819,-35769,1635432201.291479,1635432201.275918,8
355,0,16875,2816,3808,6938,-8937,-150,3726,-35734,1635432201.3025916,1635432201.376394,9
356,0,16888,2824,3816,6945,-8922,-145,3752,-35724,1635432201.3025968,1635432201.376394,9
357,0,16918,2828,3831,6959,-8906,-146,3794,-35659,1635432201.3034198,1635432201.376394,9
358,0,16919,2826,3840,6983,-8884,-128,3829,-35581,1635432201.3034222,1635432201.376394,9
359,0,16931,2813,3831,6976,-8886,-116,3848,-35586,1635432201.3075724,1635432201.376394,9
360,0,16953,2828,3855,6995,-8863,-103,3859,-35636,1635432201.3075757,1635432201.376394,9
361,0,16878,2775,3813,6966,-8890,-171,3824,-35695,1635432201.311486,1635432201.376394,9
362,0,16808,2701,3726,6881,-8987,-270,3732,-35826,1635432201,1635432201.376394,9
363,0,16865,2754,3759,6888,-8993,-286,3730,-35847,1635432201.3157597,1635432201.376394,9
364,0,16908,2794,3787,6899,-9003,-286,3771,-35795,1635432201.3157756,1635432201.376394,9
365,0,16923,2774,3759,6875,-9034,-289,3801,-35740,1635432201.3199024,1635432201.376394,9
366,0,16928,2758,3761,6881,-9003,-271,3808,-35729,1635432201.319908,1635432201.376394,9
367,0,16898,2761,3788,6913,-8975,-237,3794,-35739,1635432201.3236926,1635432201.376394,9
368,0,16832,2755,3781,6914,-8962,-254,3811,-35724,1635432201.3237004,1635432201.376394,9
369,0,16841,2778,3794,6923,-8927,-198,3783,-35699,1635432201.3279736,1635432201.376394,9
370,0,16848,2778,3797,6911,-8918,-151,3781,-35700,1635432201.3279796,1635432201.376394,9
371,0,16901,2812,3837,6939,-8924,-155,3771,-35684,1635432201.3315206,1635432201.376394,9
372,0,16999,2841,3847,6924,-8969,-158,3813,-35676,1635432201.331527,1635432201.376394,9
373,0,16959,2816,3817,6892,-9041,-236,3821,-35706,1635432201.3356452,1635432201.376394,9
374,0,16892,2768,3786,6886,-9086,-369,3796,-35760,1635432201.3356535,1635432201.376394,9
375,0,16908,2771,3791,6936,-9077,-512,3781,-35729,1635432201.3396232,1635432201.376394,9
376,0,16932,2779,3778,6896,-9153,-522,3755,-35698,1635432201.3396297,1635432201.376394,9
377,0,16981,2824,3773,6813,-9269,-588,3757,-35672,1635432201.3438046,1635432201.376394,9
378,0,17009,2860,3764,6733,-9325,-537,3823,-35666,1635432201.3438103,1635432201.376394,9
379,0,16935,2809,3736,6724,-9230,-469,3919,-35694,1635432201.3491476,1635432201.376394,9
380,0,16888,2746,3704,6801,-9028,-307,3988,-35693,1635432201.3491573,1635432201.376394,9
381,0,16874,2719,3700,6833,-8924,-116,3847,-35659,1635432201.352007,1635432201.376394,9
382,0,16849,2782,3789,6887,-8894,21,3756,-35682,1635432201.3520126,1635432201.376394,9
383,0,16819,2804,3831,6956,-8849,41,3806,-35726,1635432201.3571236,1635432201.376394,9
384,0,16829,2750,3771,6942,-8856,-21,3806,-35697,1635432201.3571293,1635432201.376394,9
385,0,16761,2684,3697,6921,-8851,6,3794,-35687,1635432201.3600438,1635432201.376394,9
386,0,16577,2654,3684,6887,-8870,-6,3733,-35711,1635432201.3600495,1635432201.376394,9
387,0,16551,2652,3670,6820,-8936,-82,3688,-35732,1635432201.364498,1635432201.376394,9
388,0,16631,2669,3706,6829,-8943,-179,3718,-35727,1635432201.364509,1635432201.376394,9
389,0,16717,2709,3781,6906,-8881,-177,3785,-35635,1635432201.3678555,1635432201.376394,9
390,0,17009,2836,3898,7024,-8794,-96,3824,-35732,1635432201.3678632,1635432201.376394,9
391,0,17202,2923,3929,7033,-8819,-125,3834,-35719,1635432201.3714948,1635432201.376394,9
392,0,17036,2923,3926,7015,-8878,-187,3857,-35674,1635432201.3714983,1635432201.376394,9
393,0,16948,2844,3869,7003,-8924,-206,3904,-35684,1635432201.3810508,1635432201.376394,9
394,0,16984,2839,3871,7011,-8926,-167,3918,-35644,1635432201.3810596,1635432201.376394,9
395,0,16938,2801,3841,7006,-8924,-179,3848,-35636,1635432201.3810787,1635432201.376394,9
396,0,16853,2733,3750,6862,-9025,-337,3851,-35700,1635432201.3810794,1635432201.376394,9
397,0,16674,2634,3695,6779,-9032,-520,3759,-35650,1635432201.3837042,1635432201.438819,10
398,0,16821,2668,3744,6878,-8998,-464,3715,-35714,1635432201.3875256,1635432201.438819,10
399,0,16749,2731,3779,6946,-8944,-291,3716,-35732,1635432201.3875296,1635432201.438819,10
400,0,16384,2707,3751,6994,-8849,-24,3728,-35698,1635432201.3918824,1635432201.438819,10
401,0,16400,2743,3790,6991,-8852,7,3864,-35589,1635432201.3918881,1635432201.438819,10
402,0,16641,2744,3761,6851,-9061,-231,3902,-35557,1635432201.3958871,1635432201.438819,10
403,0,16977,2766,3751,6763,-9170,-487,3832,-35623,1635432201.3958955,1635432201.438819,10
404,0,17221,2821,3771,6718,-9315,-736,3846,-35625,1635432201.399536,1635432201.438819,10
405,0,16732,2651,3548,6386,-9549,-853,3863,-35626,1635432201.3995488,1635432201.438819,10
406,0,16309,2464,3373,6236,-9552,-549,4003,-35666,1635432201.4037907,1635432201.438819,10
407,0,15867,2429,3433,6417,-9309,-83,4430,-35599,1635432201.403797,1635432201.438819,10
408,0,16324,2642,3631,6311,-9361,-294,4411,-35519,1635432201.4081912,1635432201.438819,10
409,0,17060,2908,3878,6227,-9293,-599,4010,-35606,1635432201.4081967,1635432201.438819,10
410,0,16844,2740,3792,6266,-9249,-296,3736,-35648,1635432201.4119337,1635432201.438819,10
411,0,16915,2626,3594,6421,-9386,-311,3837,-35528,1635432201.4119394,1635432201.438819,10
412,0,16783,2730,3712,6898,-9012,-364,3991,-35405,1635432201.4157429,1635432201.438819,10
413,0,16808,2859,3935,7223,-8482,261,3923,-35523,1635432201.4157505,1635432201.438819,10
414,0,17102,3072,4034,7299,-8395,376,3785,-35817,1635432201.419844,1635432201.438819,10
415,0,17329,3052,3831,7130,-8624,-156,3532,-36029,1635432201,1635432201.438819,10
416,0,17141,2954,3564,6524,-9067,-526,3423,-35931,1635432201.4240272,1635432201.438819,10
417,0,17159,3092,3549,5990,-9571,-529,3665,-35661,1635432201.4240327,1635432201.438819,10
418,0,17061,3146,3586,5811,-9956,-712,3994,-35599,1635432201,1635432201.438819,10
419,0,16766,3161,3672,6094,-10114,-974,4233,-35552,1635432201.4278672,1635432201.438819,10
420,0,16670,3244,3761,6288,-9786,-764,4388,-35498,1635432201.433561,1635432201.438819,10
421,0,16596,3231,3725,6573,-9141,-667,4216,-35621,1635432201.4335685,1635432201.438819,10
422,0,16773,3317,3906,6920,-8621,-402,3693,-35799,1635432201.4354544,1635432201.438819,10
423,0,16936,3299,3941,7056,-8582,26,3483,-35903,1635432201.4354568,1635432201.438819,10
424,0,16891,3213,3755,6994,-8479,428,3557,-35741,1635432201.439453,1635432201.438819,10
425,0,16858,3224,3676,7193,-8423,480,3882,-35609,1635432201.4394555,1635432201.438819,10
426,0,16946,3498,3925,7429,-8333,199,3843,-35456,1635432201.443464,1635432201.438819,10
427,0,17070,3674,4080,7366,-8495,-92,3746,-35689,1635432201.443467,1635432201.438819,10
428,0,17143,3669,4069,7194,-8722,-190,3661,-35929,1635432201.4490745,1635432201.523471,11
429,0,17013,3645,3904,6886,-9084,-281,3785,-35756,1635432201.4490826,1635432201.523471,11
430,0,16670,3453,3488,6419,-9550,-445,3946,-35538,1635432201.4515228,1635432201.523471,11
431,0,16231,3173,3239,6166,-9724,-449,4134,-35371,1635432201.4515269,1635432201.523471,11
432,0,16004,3176,3341,6241,-9617,-364,4241,-35339,1635432201.4593604,1635432201.523471,11
433,0,15828,3332,3659,6643,-9058,-184,4109,-35707,1635432201.459365,1635432201.523471,11
434,0,15626,3428,3946,6996,-8580,-81,3676,-35826,1635432201.4700663,1635432201.523471,11
435,0,15603,3359,3934,6868,-8694,91,3819,-35783,1635432201.4700713,1635432201.523471,11
436,0,15887,3461,3786,6359,-9136,78,4078,-35577,1635432201.4700816,1635432201.523471,11
437,0,16694,3634,3870,6519,-9011,23,4146,-35558,1635432201.470082,1635432201.523471,11
438,0,17378,3766,4006,6746,-9099,-108,4151,-35421,1635432201.5055912,1635432201.523471,11
439,0,17267,3605,3867,6737,-9279,-584,4054,-35452,1635432201.505597,1635432201.523471,11
440,0,17218,3685,3898,6900,-9136,-714,4083,-35554,1635432201.5056095,1635432201.523471,11
441,0,17217,3882,4105,7131,-8607,-197,4148,-35629,1635432202,1635432201.523471,11
442,0,17024,3766,4076,6994,-8496,33,3877,-35869,1635432201.5056129,1635432201.523471,11
443,0,17085,3742,4038,6843,-8642,149,3561,-35848,1635432201.5056136,1635432201.523471,11
444,0,17153,3659,3898,6859,-8787,119,3609,-35784,1635432201.5056162,1635432201.523471,11
445,0,16974,3694,3926,6503,-8967,-56,3854,-35549,1635432201.5056167,1635432201.523471,11
446,0,16474,3711,3869,6156,-9191,-252,4029,-35314,1635432201.5056188,1635432201.523471,11
447,0,15516,3383,3521,6094,-9414,-415,4103,-35326,1635432201.5056193,1635432201.523471,11
448,0,15463,3176,3394,6434,-9399,-416,4026,-35576,1635432201.505622,1635432201.523471,11
449,0,16076,3218,3517,6366,-9476,-397,3970,-35502,1635432201.5056221,1635432201.523471,11
450,0,17281,3579,3803,6644,-8983,-147,3906,-35657,1635432201.5056243,1635432201.523471,11
451,0,17639,3696,3736,6678,-8949,-237,3693,-35821,1635432201.5056248,1635432201.523471,11
452,0,17213,3736,3881,6908,-8869,-316,3637,-35806,1635432201.5056274,1635432201.523471,11
453,0,16990,3667,3882,7015,-8931,-372,3710,-35682,1635432201.5056279,1635432201.523471,11
454,0,17149,3840,3895,6779,-9062,-350,3902,-35574,1635432202,1635432201.523471,11
455,0,17444,4088,3923,6441,-9343,-387,4039,-35487,1635432201.5056305,1635432201.523471,11
456,0,17254,3941,3742,6489,-9464,-374,3992,-35575,1635432201.5056329,1635432201.523471,11
457,0,17028,3816,3581,6929,-8965,166,4086,-35620,1635432201.505633,1635432201.523471,11
458,0,16829,3669,3203,6739,-8895,-11,3850,-35736,1635432201.5083916,1635432201.523471,11
459,0,16703,3472,2979,6268,-9048,-533,3598,-35697,1635432201.5083978,1635432201.523471,11
460,0,16719,3555,3303,6283,-9052,-439,3654,-35849,1635432201.5117073,1635432201.523471,11
461,0,16771,3685,3801,6699,-8894,-299,3728,-35756,1635432201.5117185,1635432201.523471,11
462,0,16799,3815,4146,7119,-8796,-17,3728,-35662,1635432201.515688,1635432201.523471,11
463,0,16841,3911,4238,7298,-8729,93,3807,-35676,1635432201.5156977,1635432201.523471,11
464,0,16866,3951,4209,7212,-8927,-106,3850,-35673,1635432201.5196128,1635432201.523471,11
465,0,16879,3998,4230,7144,-8975,-236,3829,-35678,1635432201.5196166,1635432201.523471,11
466,0,16956,4088,4231,7035,-8966,-209,3976,-35672,1635432201.5234401,1635432201.523471,11
467,0,17013,4146,4216,7024,-8949,-308,4098,-35612,1635432201.5234425,1635432201.523471,11
468,0,16926,4018,4028,6851,-9112,-452,4079,-35549,1635432201.5279863,1635432201.523471,11
469,0,16846,3921,3902,6705,-9326,-542,3941,-35567,1635432201.5279927,1635432201.523471,11
470,0,16926,4018,4028,6851,-9112,-452,4079,-35549,1635432201.5279863,1635432201.592872,12
471,0,16846,3921,3902,6705,-9326,-542,3941,-35567,1635432201.5279927,1635432201.592872,12
472,0,16802,3907,3869,6699,-9163,-266,3842,-35638,1635432201.531626,1635432201.592872,12
473,0,16783,3918,3932,6856,-8874,-154,3708,-35688,1635432201.5316331,1635432201.592872,12
474,0,16784,3979,4078,7046,-8664,104,3821,-35732,1635432201.5357804,1635432201.592872,12
475,0,16841,4025,4118,6995,-8702,162,3924,-35681,1635432201.535789,1635432201.592872,12
476,0,16878,4077,4198,7032,-8712,169,3939,-35624,1635432201.540377,1635432201.592872,12
477,0,16781,4082,4189,7044,-8750,91,3876,-35621,1635432201.540383,1635432201.592872,12
478,0,16664,4082,4178,7095,-8671,88,3879,-35595,1635432201.543773,1635432201.592872,12
479,0,16629,4118,4219,7124,-8609,147,3964,-35607,1635432201.543779,1635432201.592872,12
480,0,16692,4125,4251,7176,-8585,104,4002,-35632,1635432201.547488,1635432201.592872,12
481,0,16716,4043,4193,7114,-8695,9,3962,-35662,1635432201.5474932,1635432201.592872,12
482,0,16851,4042,4179,7109,-8698,60,3939,-35627,1635432201.5581036,1635432201.592872,12
483,0,16780,3976,4124,7084,-8697,105,3924,-35597,1635432201.5581098,1635432201.592872,12
484,0,16836,3996,4115,7035,-8763,31,3879,-35746,1635432201.5581222,1635432201.592872,12
485,0,16863,3963,4032,6914,-8896,-112,3788,-35744,1635432201.5581229,1635432201.592872,12
486,0,16914,3909,3959,6808,-9008,-197,3777,-35706,1635432201.5600045,1635432201.592872,12
487,0,16895,4021,4071,6918,-8892,-81,3868,-35679,1635432201.560011,1635432201.592872,12
488,0,16894,4091,4148,6985,-8834,-24,3910,-35641,1635432201.5645251,1635432201.592872,12
489,0,16870,4038,4126,6973,-8863,-44,3915,-35617,1635432201.5645318,1635432201.592872,12
490,0,16836,4004,4104,6966,-8878,-61,3936,-35590,1635432201.5677743,1635432201.592872,12
491,0,16760,4009,4086,6958,-8895,-67,3963,-35596,1635432201.5677965,1635432201.592872,12
492,0,16771,4024,4124,6991,-8846,-61,3960,-35622,1635432201.5715382,1635432201.592872,12
493,0,16968,4029,4133,6987,-8833,-91,3909,-35666,1635432201.5715413,1635432201.592872,12
494,0,17180,4038,4128,6976,-8842,-3,3831,-35683,1635432201.5755079,1635432201.592872,12
495,0,17067,4056,4161,7017,-8804,54,3884,-35664,1635432202,1635432201.592872,12
496,0,16979,4058,4181,7058,-8765,63,3929,-35662,1635432201.5803561,1635432201.592872,12
497,0,16936,4051,4176,7064,-8755,60,3924,-35654,1635432201.5803611,1635432201.592872,12
498,0,16909,4037,4135,7048,-8770,51,3921,-35654,1635432201.583792,1635432201.592872,12
499,0,16916,4045,4129,7028,-8778,44,3921,-35655,1635432201.5838013,1635432201.592872,12
500,0,16962,4094,4158,7009,-8795,27,3918,-35649,1635432201.593151,1635432201.592872,12
501,0,16998,4116,4145,6978,-8821,8,3914,-35643,1635432201.593157,1635432201.592872,12
502,0,17003,4141,4162,6994,-8815,-12,3900,-35643,1635432201.5931704,1635432201.592872,12
503,0,16923,4104,4144,6979,-8840,-37,3894,-35649,1635432201.5931714,1635432201.592872,12
504,0,17070,4143,4210,7026,-8809,-12,3908,-35629,1635432201.603532,1635432202,13
505,0,16996,4155,4216,7039,-8785,43,3920,-35627,1635432201.6035352,1635432202,13
506,0,16968,4143,4216,7046,-8774,80,3928,-35644,1635432201.6075325,1635432202,13
507,0,16950,4123,4211,7047,-8776,77,3941,-35661,1635432201.6075368,1635432202,13
508,0,16948,4115,4189,7041,-8796,69,3986,-35667,1635432201.6115737,1635432202,13
509,0,16959,4109,4144,6999,-8835,13,3997,-35657,1635432201.6115773,1635432202,13
510,0,16964,4121,4163,7011,-8830,-64,3899,-35613,1635432201.6156127,1635432202,13
511,0,16957,4098,4156,7021,-8790,-17,3853,-35609,1635432201.6156251,1635432202,13
512,0,16921,4061,4149,6993,-8797,79,3875,-35646,1635432201.6195097,1635432202,13
513,0,16911,4063,4174,7011,-8786,122,3911,-35647,1635432201.6195176,1635432202,13
514,0,16903,4064,4171,7019,-8784,84,3925,-35642,1635432201.6239288,1635432202,13
515,0,16896,4054,4147,7002,-8796,29,3938,-35642,1635432201.6239345,1635432202,13
516,0,16892,4059,4148,7005,-8789,54,3938,-35638,1635432201.6279514,1635432202,13
517,0,16924,4109,4196,7049,-8761,86,3911,-35646,1635432201.627957,1635432202,13
518,0,16934,4113,4203,7057,-8755,86,3911,-35655,1635432201.6315358,1635432202,13
519,0,16934,4111,4201,7052,-8769,94,3926,-35642,1635432201.631544,1635432202,13
520,0,16921,4070,4188,7034,-8782,38,3933,-35637,1635432201.6355605,1635432202,13
521,0,16913,4030,4179,7023,-8793,-50,3924,-35637,1635432201.6355655,1635432202,13
522,0,16921,4036,4178,7023,-8787,11,3903,-35640,1635432201.639781,1635432202,13
523,0,16939,4027,4159,6996,-8841,26,3933,-35633,1635432201.6397903,1635432202,13
524,0,16961,4020,4142,6964,-8875,-31,3983,-35620,1635432201.643896,1635432202,13
525,0,16963,4005,4133,6965,-8869,-154,3968,-35614,1635432201.643902,1635432202,13
526,0,16951,4012,4184,7046,-8764,-4,3909,-35616,1635432201.6475132,1635432202,13
527,0,16927,3997,4188,7049,-8755,173,3879,-35646,1635432201.6475189,1635432202,13
528,0,16908,3976,4155,7019,-8784,148,3876,-35652,1635432201.6514404,1635432202,13
529,0,16846,3955,4134,7010,-8783,139,3902,-35654,1635432201.651446,1635432202,13
530,0,16818,3938,4128,7021,-8760,111,3916,-35655,1635432201.659282,1635432202,13
531,0,16844,3964,4148,7020,-8779,116,3932,-35642,1635432201.6592982,1635432202,13
532,0,16841,3963,4154,7016,-8811,94,3954,-35634,1635432201.6613944,1635432202,13
533,0,16866,3946,4157,7006,-8819,80,4003,-35648,1635432201.6614003,1635432202,13
534,0,16884,3921,4157,7018,-8777,93,4001,-35647,1635432201.677902,1635432202,13
535,0,16939,3934,4187,7056,-8754,17,3929,-35626,1635432201.677907,1635432202,13
536,0,17004,3934,4203,7060,-8737,64,3908,-35631,1635432201.6779177,1635432202,13
537,0,16991,3922,4201,7058,-8739,84,3870,-35630,1635432201.677918,1635432202,13
538,0,16938,3873,4163,7043,-8766,59,3884,-35614,1635432201.6779208,1635432202,13
539,0,16903,3861,4163,7053,-8749,84,3920,-35636,1635432201.6779213,1635432202,13
540,0,16866,3868,4171,7059,-8730,110,3949,-35651,1635432201.677924,1635432202,13
541,0,16828,3852,4160,7043,-8754,71,3906,-35613,1635432201.6779242,1635432202,13
542,0,16831,3856,4159,7031,-8766,70,3922,-35633,1635432201.6835182,1635432202,13
543,0,16880,3872,4169,7028,-8774,63,3923,-35627,1635432201.683527,1635432202,13
544,0,16976,3893,4169,7016,-8787,49,3917,-35627,1635432201.6835515,1635432202,13
545,0,16958,3869,4146,7012,-8769,72,3941,-35621,1635432201.6835525,1635432202,13
546,0,16958,3869,4146,7012,-8769,72,3941,-35621,1635432201.6835525,1635432201.740026,14
547,0,16929,3860,4136,7016,-8773,63,3926,-35604,1635432201.6875904,1635432201.740026,14
548,0,16941,3858,4124,7014,-8787,29,3921,-35603,1635432201.6875937,1635432201.740026,14
549,0,16937,3873,4108,7009,-8794,37,3937,-35612,1635432201.6915407,1635432201.740026,14
550,0,16944,3893,4101,7009,-8796,52,3935,-35622,1635432201.6915472,1635432201.740026,14
551,0,16931,3898,4154,7024,-8781,62,3939,-35629,1635432201.6958995,1635432201.740026,14
552,0,16929,3923,4190,7034,-8771,64,3934,-35624,1635432201.6959057,1635432201.740026,14
553,0,16916,3919,4178,7041,-8758,80,3914,-35631,1635432201.6995032,1635432201.740026,14
554,0,16902,3891,4151,7044,-8761,86,3919,-35636,1635432201.6995113,1635432201.740026,14
555,0,16938,3901,4144,7020,-8795,49,3918,-35613,1635432201.703812,1635432201.740026,14
556,0,16964,3897,4145,7020,-8794,54,3929,-35627,1635432201.703818,1635432201.740026,14
557,0,16987,3939,4177,7043,-8772,54,3919,-35619,1635432201.7079747,1635432201.740026,14
558,0,16963,3948,4186,7046,-8769,28,3930,-35630,1635432201.7079804,1635432201.740026,14
559,0,16923,3886,4148,7011,-8799,-6,3947,-35621,1635432201.7116256,1635432201.740026,14
560,0,16918,3862,4134,6999,-8832,-38,3979,-35604,1635432201.7116308,1635432201.740026,14
561,0,16922,3859,4131,6983,-8860,-96,3987,-35592,1635432201.7156777,1635432201.740026,14
562,0,16906,3844,4133,6988,-8838,-69,3966,-35600,1635432201.7156844,1635432201.740026,14
563,0,16864,3798,4109,6990,-8791,60,3925,-35631,1635432201.719936,1635432201.740026,14
564,0,16848,3775,4086,7011,-8744,131,3883,-35648,1635432201.719942,1635432201.740026,14
565,0,16846,3754,4031,6991,-8741,189,3902,-35650,1635432201.7240467,1635432201.740026,14
566,0,16862,3758,4031,6988,-8744,156,3922,-35651,1635432201.724053,1635432201.740026,14
567,0,16884,3793,4086,7000,-8760,134,3920,-35647,1635432201.727693,1635432201.740026,14
568,0,16894,3805,4124,7023,-8741,122,3933,-35642,1635432201.7277012,1635432201.740026,14
569,0,16893,3809,4121,7029,-8745,96,3934,-35638,1635432201.731538,1635432201.740026,14
570,0,16898,3811,4121,7026,-8760,79,3929,-35626,1635432201.7315412,1635432201.740026,14
571,0,16885,3788,4111,7019,-8763,105,3947,-35631,1635432201.7355058,1635432201.740026,14
572,0,16859,3753,4073,6983,-8782,117,3942,-35629,1635432201.7355106,1635432201.740026,14
573,0,16867,3766,4094,7005,-8761,109,3954,-35628,1635432201.7394977,1635432201.740026,14
574,0,16893,3739,4068,7005,-8752,59,3977,-35631,1635432201.7394998,1635432201.740026,14
575,0,16884,3676,4091,7007,-8781,-41,3955,-35617,1635432201.7435675,1635432201.740026,14
576,0,16943,3730,4187,7039,-8766,15,3913,-35607,1635432201.7435715,1635432201.740026,14
577,0,16961,3736,4206,7049,-8757,84,3885,-35617,1635432201.7476103,1635432201.809355,15
578,0,16938,3687,4170,7031,-8764,104,3932,-35628,1635432201.7476215,1635432201.809355,15
579,0,16923,3636,4130,7009,-8787,75,3939,-35616,1635432201.751564,1635432201.809355,15
580,0,16942,3657,4168,7037,-8784,14,3888,-35617,1635432201.751569,1635432201.809355,15
581,0,16927,3641,4162,7030,-8786,28,3907,-35628,1635432201.757054,1635432201.809355,15
582,0,16909,3619,4148,7024,-8781,42,3912,-35619,1635432201.757057,1635432201.809355,15
583,0,16906,3616,4140,7027,-8762,85,3922,-35631,1635432201.7599063,1635432201.809355,15
584,0,16906,3605,4138,7029,-8747,99,3925,-35627,1635432202,1635432201.809355,15
585,0,16832,3604,4144,7047,-8731,108,3934,-35642,1635432201.7644217,1635432201.809355,15
586,0,16724,3596,4143,7050,-8729,100,3951,-35652,1635432201.7644289,1635432201.809355,15
587,0,16794,3605,4151,7054,-8723,118,3961,-35642,1635432201.7676384,1635432201.809355,15
588,0,16856,3588,4139,7041,-8736,98,3958,-35629,1635432201.7676456,1635432201.809355,15
589,0,16936,3561,4106,7005,-8771,13,3929,-35601,1635432201.7718914,1635432201.809355,15
590,0,17004,3594,4117,7001,-8782,7,3966,-35631,1635432201.7718973,1635432201.809355,15
591,0,16982,3608,4118,6987,-8807,59,3997,-35633,1635432201.776013,1635432201.809355,15
592,0,16965,3599,4114,6989,-8811,66,3947,-35601,1635432201.7760189,1635432201.809355,15
593,0,16966,3603,4114,6996,-8817,14,3930,-35616,1635432201.7805111,1635432201.809355,15
594,0,16909,3584,4107,7017,-8762,-34,3930,-35629,1635432201.7805169,1635432201.809355,15
595,0,16868,3532,4084,7004,-8753,8,3870,-35630,1635432201.7835457,1635432201.809355,15
596,0,16854,3478,4063,6994,-8731,127,3879,-35642,1635432201.783564,1635432201.809355,15
597,0,16856,3486,4093,7021,-8714,149,3908,-35636,1635432201.7878485,1635432201.809355,15
598,0,16883,3477,4100,7023,-8730,133,3928,-35623,1635432201.787854,1635432201.809355,15
599,0,16884,3470,4103,7018,-8768,53,3940,-35624,1635432201.7921169,1635432201.809355,15
600,0,16878,3471,4111,7017,-8776,-32,3948,-35627,1635432201.7921224,1635432201.809355,15
601,0,16890,3461,4094,7006,-8766,-20,3948,-35635,1635432201.7959967,1635432201.809355,15
602,0,16854,3441,4083,7002,-8738,66,3948,-35643,1635432201.7960029,1635432201.809355,15
603,0,16829,3438,4088,7021,-8714,129,3950,-35629,1635432201.799683,1635432201.809355,15
604,0,16840,3419,4083,7016,-8722,94,3930,-35639,1635432201.7996902,1635432201.809355,15
605,0,16933,3430,4088,6993,-8766,23,3906,-35650,1635432201.803674,1635432201.809355,15
606,0,16916,3431,4083,6973,-8797,-21,3894,-35651,1635432201.8036785,1635432201.809355,15
607,0,16907,3450,4101,7000,-8771,40,3918,-35651,1635432201.8078904,1635432201.809355,15
608,0,16886,3441,4104,7016,-8755,102,3919,-35648,1635432201.8078964,1635432201.809355,15
609,0,16860,3389,4094,7027,-8714,183,3937,-35659,1635432201.8116913,1635432201.809355,15
610,0,16868,3386,4093,7034,-8696,189,3993,-35655,1635432201.811699,1635432201.809355,15
611,0,16866,3383,4079,7013,-8730,121,3953,-35638,1635432201.8156781,1635432201.809355,15
612,0,16906,3414,4102,7024,-8739,79,3899,-35647,1635432201.8156867,1635432201.809355,15
613,0,16915,3442,4119,7024,-8742,84,3926,-35642,1635432201.819616,1635432201.809355,15
614,0,16900,3464,4144,7028,-8738,80,3934,-35638,1635432201.819619,1635432201.809355,15
615,0,16872,3425,4120,7017,-8749,74,3943,-35638,1635432201.823581,1635432201.809355,15
616,0,16873,3396,4095,7011,-8749,70,3943,-35644,1635432201.8235831,1635432201.809355,15
617,0,16879,3381,4076,7001,-8748,70,3944,-35641,1635432201.8274748,1635432201.809355,15
618,0,16898,3394,4083,7024,-8719,99,3938,-35662,1635432201.8274803,1635432201.809355,15
619,0,16907,3450,4101,7000,-8771,40,3918,-35651,1635432201.8078904,1635432201.893533,16
620,0,16886,3441,4104,7016,-8755,102,3919,-35648,1635432201.8078964,1635432201.893533,16
621,0,16860,3389,4094,7027,-8714,183,3937,-35659,1635432201.8116913,1635432201.893533,16
622,0,16868,3386,4093,7034,-8696,189,3993,-35655,1635432201.811699,1635432201.893533,16
623,0,16866,3383,4079,7013,-8730,121,3953,-35638,1635432201.8156781,1635432201.893533,16
624,0,16906,3414,4102,7024,-8739,79,3899,-35647,1635432201.8156867,1635432201.893533,16
625,0,16915,3442,4119,7024,-8742,84,3926,-35642,1635432201.819616,1635432201.893533,16
626,0,16900,3464,4144,7028,-8738,80,3934,-35638,1635432201.819619,1635432201.893533,16
627,0,16872,3425,4120,7017,-8749,74,3943,-35638,1635432201.823581,1635432201.893533,16
628,0,16873,3396,4095,7011,-8749,70,3943,-35644,1635432201.8235831,1635432201.893533,16
629,0,16879,3381,4076,7001,-8748,70,3944,-35641,1635432201.8274748,1635432201.893533,16
630,0,16898,3394,4083,7024,-8719,99,3938,-35662,1635432201.8274803,1635432201.893533,16
631,0,16882,3385,4080,7024,-8714,110,3940,-35672,1635432201.836162,1635432201.893533,16
632,0,16867,3368,4038,7003,-8727,104,3938,-35649,1635432201.8361676,1635432201.893533,16
633,0,16844,3341,3988,6961,-8744,111,3938,-35641,1635432201.836178,1635432201.893533,16
634,0,16858,3354,4004,6926,-8787,96,3944,-35629,1635432201.8361783,1635432201.893533,16
635,0,16876,3365,4043,6940,-8807,94,3960,-35636,1635432201.8398578,1635432201.893533,16
636,0,16901,3395,4096,6984,-8782,-1,3954,-35651,1635432201.8398635,1635432201.893533,16
637,0,16924,3419,4121,7013,-8757,-47,3919,-35636,1635432201.8435676,1635432201.893533,16
638,0,16920,3428,4141,7034,-8743,34,3899,-35637,1635432201.8435748,1635432201.893533,16
639,0,16891,3406,4137,7025,-8752,73,3911,-35652,1635432201.847725,1635432201.893533,16
640,0,16868,3384,4096,7003,-8743,111,3945,-35651,1635432201.8477635,1635432201.893533,16
641,0,16864,3372,4080,6993,-8717,172,3979,-35649,1635432201.8515897,1635432201.893533,16
642,0,16873,3377,4083,6992,-8702,200,3960,-35642,1635432201.8515983,1635432201.893533,16
643,0,16891,3385,4093,6997,-8726,128,3926,-35647,1635432201.8617954,1635432201.893533,16
644,0,16892,3399,4104,7014,-8714,94,3951,-35659,1635432201.8618014,1635432201.893533,16
645,0,16896,3404,4113,7020,-8713,124,3934,-35657,1635432201.8618133,1635432201.893533,16
646,0,16869,3365,4087,6988,-8742,98,3933,-35641,1635432201.861814,1635432201.893533,16
647,0,16863,3368,4101,7000,-8726,112,3917,-35638,1635432201.8698988,1635432201.893533,16
648,0,16878,3375,4106,7008,-8719,126,3944,-35643,1635432201.8699048,1635432201.893533,16
649,0,16861,3354,4088,7006,-8719,109,3963,-35648,1635432201.8699155,1635432201.893533,16
650,0,16849,3339,4076,7001,-8719,50,3914,-35629,1635432201.869916,1635432201.893533,16
651,0,16859,3334,4073,6991,-8732,67,3913,-35651,1635432201.8718965,1635432201.893533,16
652,0,16856,3339,4072,6979,-8747,98,3931,-35649,1635432201.8719025,1635432201.893533,16
653,0,16839,3337,4084,7001,-8711,91,3950,-35650,1635432201.9082568,1635432201.978024,17
654,0,16881,3359,4088,6988,-8721,88,3957,-35645,1635432201.9082592,1635432201.978024,17
655,0,16901,3349,4063,6961,-8744,86,3972,-35630,1635432201.9082596,1635432201.978024,17
656,0,16898,3343,4046,6944,-8766,58,3938,-35609,1635432201.908262,1635432201.978024,17
657,0,16875,3346,4066,6969,-8747,84,3903,-35616,1635432201.9082623,1635432201.978024,17
658,0,16846,3327,4083,6988,-8731,126,3909,-35614,1635432201.9084065,1635432201.978024,17
659,0,16888,3363,4115,7000,-8726,118,3929,-35597,1635432201.9084084,1635432201.978024,17
660,0,16871,3354,4097,6983,-8751,49,3935,-35629,1635432201.911605,1635432201.978024,17
661,0,16879,3377,4115,7001,-8752,18,3953,-35658,1635432201.9116082,1635432201.978024,17
662,0,16886,3391,4134,7009,-8759,13,3951,-35691,1635432201.9156935,1635432201.978024,17
663,0,16853,3357,4101,6986,-8780,21,3959,-35691,1635432201.915701,1635432201.978024,17
664,0,16824,3320,4059,6956,-8792,69,3983,-35675,1635432202,1635432201.978024,17
665,0,16863,3358,4072,6957,-8793,46,3968,-35647,1635432201.919515,1635432201.978024,17
666,0,16870,3352,4069,6971,-8737,126,3945,-35662,1635432201.9239829,1635432201.978024,17
667,0,16903,3366,4089,6976,-8735,184,3966,-35654,1635432201.9239888,1635432201.978024,17
668,0,16889,3376,4102,6988,-8722,161,3963,-35657,1635432202,1635432201.978024,17
669,0,16866,3386,4118,7013,-8696,156,3927,-35659,1635432201.927986,1635432201.978024,17
670,0,16836,3369,4118,7027,-8676,190,3922,-35671,1635432201.931596,1635432201.978024,17
671,0,16792,3326,4078,6984,-8717,221,3953,-35658,1635432201.931601,1635432201.978024,17
672,0,16786,3264,4015,6923,-8775,139,3967,-35662,1635432201.9373767,1635432201.978024,17
673,0,16782,3260,4018,6927,-8769,92,3956,-35648,1635432201.9373827,1635432201.978024,17
674,0,16761,3261,4039,6962,-8750,36,3933,-35604,1635432202,1635432201.978024,17
675,0,16787,3249,4020,6946,-8770,-4,3891,-35634,1635432201.939906,1635432201.978024,17
676,0,16821,3286,4039,6971,-8735,110,3901,-35717,1635432201.943544,1635432201.978024,17
677,0,16922,3383,4123,7037,-8664,192,3953,-35701,1635432201.9435484,1635432201.978024,17
678,0,16981,3430,4152,7048,-8653,189,3935,-35651,1635432202,1635432201.978024,17
679,0,16926,3388,4123,7024,-8669,181,3944,-35654,1635432201.9475853,1635432201.978024,17
680,0,16885,3352,4135,7029,-8678,160,3945,-35666,1635432201.9516406,1635432201.978024,17
681,0,16846,3314,4103,7008,-8700,126,3939,-35691,1635432201.9516466,1635432201.978024,17
682,0,16829,3291,4073,6989,-8704,127,3953,-35714,1635432201.9560769,1635432201.978024,17
683,0,16857,3323,4088,7000,-8686,138,3955,-35698,1635432201.9561071,1635432201.978024,17
684,0,16858,3324,4084,6991,-8697,113,3929,-35658,1635432201.959963,1635432201.978024,17
685,0,16845,3323,4085,6991,-8699,108,3929,-35662,1635432201.9599693,1635432201.978024,17
686,0,16849,3339,4098,6996,-8704,108,3931,-35672,1635432201.9713683,1635432201.978024,17
687,0,16859,3341,4089,6983,-8713,109,3939,-35662,1635432201.9713748,1635432201.978024,17
688,0,16869,3353,4093,6984,-8714,131,3963,-35665,1635432201.971387,1635432201.978024,17
689,0,16864,3346,4081,6978,-8721,114,3936,-35653,1635432201.9713874,1635432201.978024,17
690,0,16861,3351,4082,6985,-8723,89,3914,-35659,1635432202,1635432201.978024,17
691,0,16848,3343,4070,6977,-8722,106,3931,-35666,1635432201.9713905,1635432201.978024,17
692,0,16839,3334,4071,6981,-8718,108,3931,-35666,1635432201.9755332,1635432201.978024,17
693,0,16822,3320,4069,6979,-8721,98,3930,-35672,1635432201.9755356,1635432201.978024,17
694,0,16799,3308,4056,6967,-8726,84,3921,-35679,1635432201.980308,1635432201.978024,17
695,0,16798,3310,4052,6958,-8737,73,3926,-35675,1635432201.980313,1635432201.978024,17
696,0,16842,3345,4076,6961,-8751,27,3962,-35646,1635432201.983688,1635432201.978024,17
697,0,16893,3383,4101,6958,-8779,-34,3993,-35612,1635432201.9836934,1635432201.978024,17
698,0,16827,3342,4058,6981,-8685,192,3911,-35647,1635432202,1635432202.046907,18
699,0,16780,3306,4050,6997,-8671,98,3921,-35629,1635432201.9960911,1635432202.046907,18
700,0,16801,3302,4059,6986,-8704,109,3944,-35644,1635432201.9960976,1635432202.046907,18
701,0,16824,3311,4056,6961,-8738,161,3973,-35640,1635432201.999879,1635432202.046907,18
702,0,16809,3278,4036,6948,-8753,99,3963,-35729,1635432201.9998891,1635432202.046907,18
703,0,16821,3295,4056,6974,-8701,161,3964,-35734,1635432202.0038855,1635432202.046907,18
704,0,16844,3349,4104,7005,-8671,121,3976,-35702,1635432202.0038917,1635432202.046907,18
705,0,16840,3356,4107,7025,-8654,154,3963,-35696,1635432202.008072,1635432202.046907,18
706,0,16863,3371,4114,7037,-8651,194,3937,-35686,1635432202.0080776,1635432202.046907,18
707,0,16863,3352,4080,7019,-8659,189,3916,-35665,1635432202.011981,1635432202.046907,18
708,0,16861,3344,4058,7012,-8672,181,3933,-35672,1635432202.0119867,1635432202.046907,18
709,0,16871,3364,4093,7023,-8682,128,3949,-35681,1635432202.0174189,1635432202.046907,18
710,0,16886,3389,4143,7025,-8705,24,3956,-35662,1635432202.0174243,1635432202.046907,18
711,0,16897,3411,4177,7038,-8701,-1,3949,-35656,1635432202.0205507,1635432202.046907,18
712,0,16865,3378,4143,7016,-8697,101,3992,-35683,1635432202.0205567,1635432202.046907,18
713,0,16811,3344,4102,6987,-8694,226,3968,-35680,1635432202.024024,1635432202.046907,18
714,0,16793,3318,4072,6958,-8708,268,3968,-35670,1635432202,1635432202.046907,18
715,0,16771,3296,4057,6963,-8696,209,3959,-35656,1635432202.0280893,1635432202.046907,18
716,0,16781,3276,4041,6968,-8692,100,3945,-35634,1635432202.0280952,1635432202.046907,18
717,0,16806,3269,4032,6977,-8673,131,3948,-35630,1635432202.0319436,1635432202.046907,18
718,0,16825,3309,4056,6995,-8653,182,3936,-35614,1635432202.0319483,1635432202.046907,18
719,0,16836,3326,4056,6978,-8674,164,3938,-35617,1635432202.035792,1635432202.046907,18
720,0,16836,3318,4031,6936,-8711,116,3911,-35726,1635432202.0358045,1635432202.046907,18
721,0,16861,3349,4074,6969,-8690,129,3929,-35747,1635432202.039568,1635432202.046907,18
722,0,16886,3387,4133,7025,-8669,140,3953,-35696,1635432202.0395706,1635432202.046907,18
723,0,16898,3397,4154,7033,-8667,129,3957,-35684,1635432202.0434804,1635432202.046907,18
724,0,16884,3384,4149,7023,-8672,124,3957,-35684,1635432202.0434835,1635432202.046907,18
725,0,16869,3377,4134,7008,-8677,133,3951,-35687,1635432202.0512395,1635432202.046907,18
726,0,16868,3369,4121,7008,-8679,138,3936,-35689,1635432202.0512471,1635432202.046907,18
727,0,16877,3367,4114,7007,-8689,125,3924,-35686,1635432202.0514095,1635432202.046907,18
728,0,16886,3375,4113,7008,-8686,135,3941,-35682,1635432202.0514128,1635432202.046907,18
729,0,16867,3367,4089,7013,-8654,174,3946,-35682,1635432202.0636036,1635432202,19
730,0,16870,3348,4084,7001,-8681,137,3921,-35679,1635432202.0720465,1635432202,19
731,0,16878,3307,4109,7003,-8695,90,3933,-35676,1635432202.0720518,1635432202,19
732,0,16889,3304,4118,7009,-8691,57,3958,-35669,1635432202.0725832,1635432202,19
733,0,16897,3309,4123,7011,-8696,59,3958,-35661,1635432202.0725856,1635432202,19
734,0,16883,3308,4129,7011,-8695,108,3951,-35670,1635432202.0760276,1635432202,19
735,0,16886,3303,4128,7007,-8696,157,3955,-35679,1635432202.076031,1635432202,19
736,0,16868,3272,4091,6968,-8742,153,3971,-35682,1635432202.0799563,1635432202,19
737,0,16879,3283,4096,6971,-8750,128,3979,-35667,1635432202.0799608,1635432202,19
738,0,16869,3282,4092,6973,-8726,130,3986,-35673,1635432202.083891,1635432202,19
739,0,16880,3293,4101,7017,-8662,116,3969,-35670,1635432202.083897,1635432202,19
740,0,16870,3272,4081,7019,-8636,149,3979,-35692,1635432202.0880015,1635432202,19
741,0,16859,3256,4063,6979,-8677,117,3938,-35697,1635432202.0880072,1635432202,19
742,0,16834,3256,4077,6988,-8684,97,3903,-35687,1635432202.0919695,1635432202,19
743,0,16841,3276,4101,7013,-8671,134,3919,-35674,1635432202.0919757,1635432202,19
744,0,16873,3287,4106,7021,-8671,164,3923,-35679,1635432202,1635432202,19
745,0,16886,3283,4100,7020,-8646,257,3969,-35713,1635432202.0955849,1635432202,19
746,0,16876,3256,4082,7007,-8662,173,3979,-35712,1635432202.1000228,1635432202,19
747,0,16877,3256,4090,7010,-8665,121,3931,-35663,1635432202.1000316,1635432202,19
748,0,16876,3263,4086,7009,-8656,165,3933,-35669,1635432202.1035619,1635432202,19
749,0,16873,3278,4106,7033,-8643,182,3933,-35686,1635432202.1035666,1635432202,19
750,0,16842,3269,4103,7024,-8647,186,3948,-35693,1635432202.1080155,1635432202,19
751,0,16831,3264,4099,7017,-8659,177,3956,-35686,1635432202.1080215,1635432202,19
752,0,16843,3269,4103,7023,-8654,191,3956,-35682,1635432202.1117089,1635432202,19
753,0,16882,3288,4103,7014,-8675,168,3943,-35672,1635432202.1117167,1635432202,19
754,0,16900,3283,4097,6997,-8695,130,3929,-35670,1635432202.1156733,1635432202,19
755,0,16894,3292,4113,7009,-8697,140,3936,-35681,1635432202.1156807,1635432202,19
756,0,16899,3296,4111,7009,-8694,136,3938,-35686,1635432202.1196427,1635432202,19
757,0,16898,3287,4096,7005,-8697,126,3935,-35688,1635432202.1196475,1635432202,19
758,0,16868,3254,4056,6984,-8707,130,3939,-35687,1635432202.1235712,1635432202,19
759,0,16846,3248,4054,6977,-8704,139,3936,-35684,1635432202.123574,1635432202,19
760,0,16891,3304,4097,7004,-8682,158,3956,-35663,1635432202.1279304,1635432202,19
761,0,16912,3321,4113,7019,-8669,168,3973,-35644,1635432202.127934,1635432202,19
762,0,16899,3296,4111,7009,-8694,136,3938,-35686,1635432202.1196427,1635432202.193873,20
763,0,16898,3287,4096,7005,-8697,126,3935,-35688,1635432202.1196475,1635432202.193873,20
764,0,16868,3254,4056,6984,-8707,130,3939,-35687,1635432202.1235712,1635432202.193873,20
765,0,16846,3248,4054,6977,-8704,139,3936,-35684,1635432202.123574,1635432202.193873,20
766,0,16891,3304,4097,7004,-8682,158,3956,-35663,1635432202.1279304,1635432202.193873,20
767,0,16912,3321,4113,7019,-8669,168,3973,-35644,1635432202.127934,1635432202.193873,20
768,0,16891,3291,4097,7011,-8679,154,3962,-35646,1635432202.1316066,1635432202.193873,20
769,0,16880,3278,4096,7013,-8682,149,3947,-35685,1635432202.1316106,1635432202.193873,20
770,0,16877,3278,4091,7006,-8693,133,3923,-35722,1635432202.1356597,1635432202.193873,20
771,0,16893,3295,4104,7020,-8685,149,3943,-35696,1635432202.1356733,1635432202.193873,20
772,0,16904,3291,4110,7029,-8679,163,3951,-35691,1635432202.1398785,1635432202.193873,20
773,0,16914,3295,4106,7029,-8684,156,3953,-35694,1635432202.1398845,1635432202.193873,20
774,0,16909,3298,4109,7032,-8684,153,3948,-35697,1635432202.143932,1635432202.193873,20
775,0,16901,3293,4123,7035,-8676,158,3953,-35693,1635432202.143938,1635432202.193873,20
776,0,16891,3281,4103,7019,-8675,166,3959,-35696,1635432202.1483643,1635432202.193873,20
777,0,16899,3279,4080,7001,-8685,161,3971,-35694,1635432202.1483693,1635432202.193873,20
778,0,16916,3299,4097,7011,-8689,144,3962,-35692,1635432202.1518948,1635432202.193873,20
779,0,16914,3306,4114,7011,-8700,130,3942,-35687,1635432202.1519012,1635432202.193873,20
780,0,16921,3318,4134,7019,-8696,136,3953,-35698,1635432202.1560488,1635432202.193873,20
781,0,16908,3298,4102,7018,-8707,115,3983,-35706,1635432202.1560545,1635432202.193873,20
782,0,16929,3210,4070,7023,-8714,81,3970,-35687,1635432202.160034,1635432202.193873,20
783,0,16919,3044,4046,7009,-8720,81,3969,-35674,1635432202,1635432202.193873,20
784,0,16898,3013,4061,7006,-8713,127,3968,-35661,1635432202.165226,1635432202.193873,20
785,0,16920,3041,4133,7010,-8712,113,4003,-35646,1635432202.165232,1635432202.193873,20
786,0,16903,3019,4118,6973,-8742,21,4046,-35659,1635432202.173438,1635432202.193873,20
787,0,16862,2990,4085,6994,-8691,51,3980,-35688,1635432202.1734438,1635432202.193873,20
788,0,16823,2976,4089,7021,-8623,246,3924,-35717,1635432202.1734562,1635432202.193873,20
789,0,16783,2997,4117,7033,-8619,319,3918,-35728,1635432202.173457,1635432202.193873,20
790,0,16803,3010,4118,7031,-8650,273,3911,-35697,1635432202.1763988,1635432202.193873,20
791,0,16832,3008,4104,7017,-8671,224,3913,-35693,1635432202.1764052,1635432202.193873,20
792,0,16869,3018,4113,7020,-8674,206,3916,-35707,1635432202.1805904,1635432202.193873,20
793,0,16909,3029,4124,7027,-8677,192,3928,-35694,1635432202.1805985,1635432202.193873,20
794,0,16912,3026,4119,7019,-8692,159,3944,-35687,1635432202.1842453,1635432202.193873,20
795,0,16879,3019,4121,7017,-8691,146,3963,-35697,1635432202.1842506,1635432202.193873,20
796,0,16866,3012,4122,7020,-8682,156,3964,-35694,1635432202.1876252,1635432202.193873,20
797,0,16878,3006,4109,7010,-8686,167,3956,-35682,1635432202.1876273,1635432202.193873,20
798,0,16894,3003,4104,7011,-8685,177,3943,-35687,1635432202.1914945,1635432202.193873,20
799,0,16880,2989,4103,7015,-8681,184,3936,-35695,1635432202.1914964,1635432202.193873,20
800,0,16896,2994,4095,7014,-8679,179,3937,-35715,1635432202.1980927,1635432202.193873,20
801,0,16906,3018,4104,7027,-8675,164,3934,-35704,1635432202.1981006,1635432202.193873,20
802,0,16889,2994,4092,6997,-8696,147,3936,-35697,1635432202.2035291,1635432202.278278,21
803,0,16891,3004,4098,7017,-8682,161,3939,-35708,1635432202.2035375,1635432202.278278,21
804,0,16914,3033,4132,7053,-8639,219,3976,-35701,1635432202.2075207,1635432202.278278,21
805,0,16923,3038,4134,7062,-8630,239,3981,-35700,1635432202.2075243,1635432202.278278,21
806,0,16928,3041,4122,7038,-8657,191,3957,-35694,1635432202.2115595,1635432202.278278,21
807,0,16936,3050,4131,7029,-8681,143,3928,-35689,1635432202.2115655,1635432202.278278,21
808,0,16920,3041,4121,7028,-8690,130,3917,-35680,1635432202.220014,1635432202.278278,21
809,0,16904,3018,4115,7035,-8682,153,3943,-35680,1635432202,1635432202.278278,21
810,0,16898,3013,4129,7041,-8666,168,3962,-35678,1635432202.2200327,1635432202.278278,21
811,0,16903,3020,4131,7040,-8659,164,3954,-35658,1635432202.2200332,1635432202.278278,21
812,0,16896,3008,4118,7029,-8666,165,3950,-35703,1635432202.2241073,1635432202.278278,21
813,0,16903,3023,4126,7033,-8689,165,3944,-35724,1635432202.2241132,1635432202.278278,21
814,0,16915,3034,4131,7021,-8718,156,3951,-35699,1635432202.2278187,1635432202.278278,21
815,0,16913,3025,4116,6993,-8734,136,3966,-35697,1635432202.2278242,1635432202.278278,21
816,0,16906,3012,4096,6991,-8712,107,3968,-35711,1635432202.231575,1635432202.278278,21
817,0,16897,3001,4088,7004,-8687,143,3955,-35711,1635432202.2315784,1635432202.278278,21
818,0,16903,3018,4120,7051,-8637,200,3949,-35727,1635432202.2355611,1635432202.278278,21
819,0,16908,3007,4113,7046,-8637,216,3937,-35731,1635432202.2355678,1635432202.278278,21
820,0,16904,3000,4104,7032,-8658,184,3919,-35704,1635432202.2399137,1635432202.278278,21
821,0,16903,2995,4093,7029,-8668,182,3926,-35712,1635432202,1635432202.278278,21
822,0,16918,3001,4090,7014,-8686,152,3934,-35720,1635432202.2451763,1635432202.278278,21
823,0,16934,3021,4103,7011,-8689,149,3928,-35704,1635432202.2451825,1635432202.278278,21
824,0,16956,3055,4145,7038,-8677,171,3928,-35692,1635432202.247708,1635432202.278278,21
825,0,16964,3058,4152,7055,-8663,190,3951,-35709,1635432202.247714,1635432202.278278,21
826,0,16966,3063,4149,7050,-8677,160,3978,-35704,1635432202.2518916,1635432202.278278,21
827,0,16952,3065,4154,7050,-8701,121,3970,-35675,1635432202.251897,1635432202.278278,21
828,0,16960,3060,4148,7041,-8731,58,3975,-35658,1635432202.2560773,1635432202.278278,21
829,0,16941,3037,4129,7035,-8709,77,3981,-35674,1635432202.256083,1635432202.278278,21
830,0,16898,3003,4131,7033,-8677,138,3986,-35703,1635432202.2600732,1635432202.278278,21
831,0,16873,2990,4127,7032,-8646,248,3978,-35716,1635432202.2600791,1635432202.278278,21
832,0,16888,3003,4134,7052,-8620,326,3905,-35728,1635432202.2697709,1635432202.278278,21
833,0,16894,3003,4134,7052,-8626,314,3879,-35736,1635432202.2697775,1635432202.278278,21
834,0,16912,2997,4121,7046,-8644,216,3916,-35728,1635432202.2697985,1635432202.278278,21
835,0,16934,2996,4116,7032,-8650,214,3930,-35717,1635432202.2697992,1635432202.278278,21
836,0,16930,2996,4101,7023,-8669,208,3923,-35706,1635432202.2731185,1635432202.278278,21
837,0,16916,3009,4113,7031,-8667,196,3924,-35706,1635432202.273121,1635432202.278278,21
838,0,16921,3023,4119,7041,-8660,191,3923,-35707,1635432202.2809749,1635432202.278278,21
839,0,16945,3046,4142,7044,-8661,193,3929,-35708,1635432202.2809827,1635432202.278278,21
840,0,16959,3058,4166,7044,-8666,183,3931,-35702,1635432202.2810044,1635432202.278278,21
841,0,16952,3036,4151,7030,-8671,179,3933,-35704,1635432202.2810056,1635432202.278278,21
842,0,16896,2999,4126,7025,-8668,180,3938,-35712,1635432202.2837584,1635432202.278278,21
843,0,16873,2977,4120,7031,-8666,181,3936,-35719,1635432202.2837641,1635432202.278278,21
844,0,16873,2977,4120,7031,-8666,181,3936,-35719,1635432202.2837641,1635432202.325474,22
845,0,16919,3004,4144,7041,-8662,179,3928,-35716,1635432202.2920842,1635432202.325474,22
846,0,16950,3028,4164,7048,-8665,173,3928,-35712,1635432202.292089,1635432202.325474,22
847,0,16901,2991,4143,7039,-8665,175,3931,-35712,1635432202.2920997,1635432202.325474,22
848,0,16874,2963,4116,7014,-8669,179,3948,-35718,1635432202.2921002,1635432202.325474,22
849,0,16869,2983,4121,7011,-8679,175,3947,-35712,1635432202.2956676,1635432202.325474,22
850,0,16868,2997,4141,7026,-8669,178,3936,-35707,1635432202.2956748,1635432202.325474,22
851,0,16893,3011,4161,7053,-8633,214,3953,-35708,1635432202.2997594,1635432202.325474,22
852,0,16914,3025,4172,7074,-8614,216,3923,-35731,1635432202.2997692,1635432202.325474,22
853,0,16938,3017,4169,7069,-8633,199,3909,-35720,1635432202.3039448,1635432202.325474,22
854,0,16953,3005,4145,7041,-8656,177,3920,-35710,1635432202.3039508,1635432202.325474,22
855,0,16964,3031,4168,7039,-8656,174,3928,-35719,1635432202.308077,1635432202.325474,22
856,0,16972,3048,4185,7059,-8644,174,3936,-35710,1635432202.308083,1635432202.325474,22
857,0,16977,3047,4188,7056,-8644,174,3933,-35707,1635432202.3118665,1635432202.325474,22
858,0,16935,3013,4168,7048,-8646,199,3941,-35716,1635432202.3118725,1635432202.325474,22
859,0,16912,2994,4158,7047,-8651,224,3954,-35729,1635432202.3157625,1635432202.325474,22
860,0,16924,2992,4166,7045,-8649,198,3967,-35722,1635432202.315769,1635432202.325474,22
861,0,16896,2964,4148,7041,-8649,138,3950,-35710,1635432202.3198347,1635432202.325474,22
862,0,16899,2978,4159,7065,-8623,182,3950,-35717,1635432202.3198404,1635432202.325474,22
863,0,16921,3000,4177,7063,-8629,188,3937,-35717,1635432202.3239818,1635432202.325474,22
864,0,16921,3003,4168,7054,-8628,222,3951,-35742,1635432202.3239875,1635432202.325474,22
865,0,16909,2976,4136,7024,-8635,294,4036,-35782,1635432202.3276591,1635432202.325474,22
866,0,16948,2999,4150,7021,-8659,211,3926,-35722,1635432202.3276668,1635432202.325474,22
867,0,16970,3050,4197,7047,-8656,158,3853,-35686,1635432202.3315344,1635432202.325474,22
868,0,16939,3003,4161,7031,-8666,152,3906,-35690,1635432202.3315375,1635432202.325474,22
869,0,16913,2963,4143,7026,-8667,147,3919,-35696,1635432202.3356535,1635432202.325474,22
870,0,16899,2953,4131,7017,-8672,128,3925,-35691,1635432202.3356616,1635432202.325474,22
871,0,16896,2956,4138,7012,-8672,153,3930,-35688,1635432202.3395371,1635432202.325474,22
872,0,16931,2994,4158,7014,-8685,140,3953,-35679,1635432202.3395395,1635432202.325474,22
873,0,16979,3051,4201,7030,-8709,20,3949,-35661,1635432202.3436668,1635432202.325474,22
874,0,16978,3042,4194,7024,-8692,67,3951,-35719,1635432202.3436704,1635432202.325474,22
875,0,16948,3004,4146,6998,-8680,118,3953,-35746,1635432202.3492532,1635432202.409758,23
876,0,16896,2962,4109,6983,-8674,189,3963,-35738,1635432202.349258,1635432202.409758,23
877,0,16879,2941,4107,6992,-8655,221,3922,-35714,1635432202.3515701,1635432202.409758,23
878,0,16894,2951,4121,7016,-8622,252,3876,-35691,1635432202.3515737,1635432202.409758,23
879,0,16896,2964,4126,7015,-8614,283,3903,-35683,1635432202.3556256,1635432202.409758,23
880,0,16913,2995,4161,7054,-8592,297,3943,-35695,1635432202.3556287,1635432202.409758,23
881,0,16931,3010,4188,7086,-8592,279,3946,-35760,1635432202.359589,1635432202.409758,23
882,0,16930,2997,4163,7065,-8620,231,3936,-35772,1635432202.359593,1635432202.409758,23
883,0,16936,2979,4149,7041,-8647,186,3923,-35739,1635432202.3635452,1635432202.409758,23
884,0,16934,2972,4151,7028,-8657,118,3904,-35737,1635432202.3635497,1635432202.409758,23
885,0,16928,2984,4166,7020,-8662,153,3906,-35721,1635432202.3695056,1635432202.409758,23
886,0,16959,3012,4183,7042,-8638,220,3923,-35714,1635432202.3695142,1635432202.409758,23
887,0,16985,3033,4191,7069,-8612,242,3933,-35733,1635432202.3762712,1635432202.409758,23
888,0,16969,3014,4171,7053,-8631,218,3944,-35727,1635432202.3762772,1635432202.409758,23
889,0,16949,2993,4156,7044,-8647,211,3943,-35727,1635432202.3762896,1635432202.409758,23
890,0,16954,3008,4187,7055,-8634,221,3945,-35722,1635432202,1635432202.409758,23
891,0,16951,3001,4173,7044,-8642,219,3968,-35723,1635432202.385785,1635432202.409758,23
892,0,16966,3014,4171,7046,-8641,205,3955,-35722,1635432202.3857915,1635432202.409758,23
893,0,16976,3028,4189,7057,-8625,193,3947,-35727,1635432202.3858035,1635432202.409758,23
894,0,16979,3021,4190,7060,-8617,195,3914,-35727,1635432202.385804,1635432202.409758,23
895,0,16963,3004,4180,7056,-8609,208,3893,-35726,1635432202.3880355,1635432202.409758,23
896,0,16951,2999,4173,7058,-8611,215,3924,-35731,1635432202.3880415,1635432202.409758,23
897,0,16947,3004,4168,7047,-8631,194,3925,-35726,1635432202.3920977,1635432202.409758,23
898,0,16934,2998,4172,7041,-8642,186,3919,-35715,1635432202.3921034,1635432202.409758,23
899,0,16903,2981,4169,7043,-8637,198,3924,-35719,1635432202.410214,1635432202.409758,23
900,0,16915,2984,4178,7048,-8635,202,3926,-35721,1635432202.4102204,1635432202.409758,23
901,0,16929,2991,4183,7068,-8615,210,3933,-35723,1635432202.4102323,1635432202.409758,23
902,0,16938,3005,4193,7079,-8604,219,3945,-35727,1635432202.4102328,1635432202.409758,23
903,0,16931,2986,4154,7039,-8643,191,3946,-35706,1635432202.4102356,1635432202.409758,23
904,0,16945,2994,4149,7033,-8652,152,3943,-35697,1635432202.410236,1635432202.409758,23
905,0,16953,2996,4149,7024,-8661,98,3949,-35694,1635432202.4102385,1635432202.409758,23
906,0,16952,2993,4157,7028,-8657,88,3936,-35698,1635432202.4102387,1635432202.409758,23
907,0,16941,2979,4151,7034,-8647,129,3918,-35710,1635432202.4136052,1635432202.409758,23
908,0,16947,3004,4182,7058,-8636,131,3914,-35719,1635432202.4136121,1635432202.409758,23
909,0,16939,3009,4189,7058,-8651,154,3937,-35707,1635432202.4159358,1635432202.478639,24
910,0,16919,2976,4164,7034,-8675,116,3940,-35705,1635432202.4159398,1635432202.478639,24
911,0,16915,2973,4150,7019,-8647,243,3933,-35719,1635432202.419666,1635432202.478639,24
912,0,16922,2998,4157,7042,-8592,337,3914,-35729,1635432202.4196699,1635432202.478639,24
913,0,16928,3004,4157,7043,-8587,288,3918,-35731,1635432202.4239593,1635432202.478639,24
914,0,16929,3003,4162,7039,-8596,261,3918,-35733,1635432202.4239652,1635432202.478639,24
915,0,16918,3006,4168,7036,-8610,244,3931,-35732,1635432202.427972,1635432202.478639,24
916,0,16913,3001,4159,7031,-8617,229,3933,-35714,1635432202.427978,1635432202.478639,24
917,0,16914,2994,4159,7043,-8619,213,3918,-35704,1635432202.4320197,1635432202.478639,24
918,0,16933,2999,4157,7027,-8648,171,3920,-35703,1635432202.4320304,1635432202.478639,24
919,0,16960,3009,4159,7014,-8672,126,3930,-35701,1635432202.435671,1635432202.478639,24
920,0,16969,3021,4171,7016,-8682,125,3930,-35699,1635432202.4356885,1635432202.478639,24
921,0,16948,3016,4171,7014,-8676,173,3927,-35705,1635432202.4400053,1635432202.478639,24
922,0,16939,3006,4160,7016,-8656,218,3931,-35718,1635432202.4400113,1635432202.478639,24
923,0,16941,3006,4162,7026,-8627,236,3943,-35722,1635432202.443945,1635432202.478639,24
924,0,16937,2993,4154,7029,-8637,165,3916,-35713,1635432202.443951,1635432202.478639,24
925,0,16911,2966,4118,7004,-8653,138,3887,-35726,1635432202.4475455,1635432202.478639,24
926,0,16897,2966,4111,7001,-8645,186,3907,-35722,1635432202.4475513,1635432202.478639,24
927,0,16923,2988,4134,7019,-8637,199,3906,-35721,1635432202.4519608,1635432202.478639,24
928,0,16946,3009,4160,7046,-8615,201,3936,-35724,1635432202.4519665,1635432202.478639,24
929,0,16986,3046,4195,7065,-8595,216,3946,-35701,1635432202.455995,1635432202.478639,24
930,0,16972,3038,4194,7058,-8605,201,3906,-35695,1635432202.4560013,1635432202.478639,24
931,0,16943,3026,4183,7061,-8606,219,3913,-35714,1635432202.4602394,1635432202.478639,24
932,0,16920,3009,4165,7049,-8613,224,3920,-35724,1635432202.4602451,1635432202.478639,24
933,0,16929,3010,4170,7052,-8619,212,3921,-35722,1635432202.4642131,1635432202.478639,24
934,0,16924,3003,4168,7050,-8619,214,3933,-35721,1635432202.4642231,1635432202.478639,24
935,0,16924,3002,4165,7045,-8617,211,3929,-35719,1635432202.4708707,1635432202.478639,24
936,0,16937,3013,4173,7049,-8620,196,3921,-35717,1635432202.4708772,1635432202.478639,24
937,0,16935,3016,4158,7048,-8622,213,3946,-35722,1635432202.4742193,1635432202.478639,24
938,0,16929,2998,4134,7018,-8651,189,3944,-35707,1635432202.4742217,1635432202.478639,24
939,0,16926,2996,4128,6997,-8673,136,3953,-35685,1635432202.4780777,1635432202.478639,24
940,0,16909,3004,4155,7038,-8619,161,4003,-35707,1635432202.4780798,1635432202.478639,24
941,0,16891,3010,4148,7046,-8572,254,4023,-35742,1635432202.480292,1635432202.478639,24
942,0,16866,2962,4098,6977,-8668,146,3844,-35711,1635432202.4802985,1635432202.478639,24
943,0,16949,3028,4178,7063,-8589,226,3935,-35766,1635432202.4956005,1635432202.547631,25
944,0,16959,3032,4171,7043,-8614,185,3934,-35747,1635432202.495603,1635432202.547631,25
945,0,16978,3053,4176,7031,-8649,104,3901,-35735,1635432202.5033784,1635432202.547631,25
946,0,16981,3074,4186,7035,-8682,16,3874,-35726,1635432202.5033867,1635432202.547631,25
947,0,16981,3077,4192,7048,-8691,27,3922,-35719,1635432202.503578,1635432202.547631,25
948,0,16983,3058,4175,7051,-8674,104,3964,-35717,1635432202.5035827,1635432202.547631,25
949,0,16958,3009,4123,7023,-8656,202,3954,-35722,1635432202.5094838,1635432202.547631,25
950,0,16956,2987,4090,6986,-8627,282,3950,-35737,1635432202.5094895,1635432202.547631,25
951,0,16926,2979,4094,6981,-8604,331,3967,-35736,1635432202.5118802,1635432202.547631,25
952,0,16911,2996,4139,7024,-8589,349,3922,-35734,1635432202.5118861,1635432202.547631,25
953,0,16943,3028,4169,7042,-8593,347,3911,-35726,1635432202.5174303,1635432202.547631,25
954,0,16947,3034,4165,7038,-8596,328,3913,-35716,1635432202.5174491,1635432202.547631,25
955,0,16927,3029,4153,7040,-8604,205,3898,-35726,1635432202.520004,1635432202.547631,25
956,0,16915,3019,4142,7040,-8596,164,3899,-35729,1635432203,1635432202.547631,25
957,0,16917,3029,4147,7048,-8582,243,3900,-35727,1635432203,1635432202.547631,25
958,0,16919,3018,4134,7037,-8600,244,3909,-35724,1635432202.524166,1635432202.547631,25
959,0,16927,3023,4136,7026,-8611,226,3909,-35727,1635432202.5291376,1635432202.547631,25
960,0,16938,3039,4139,7026,-8616,227,3912,-35725,1635432202.5291471,1635432202.547631,25
961,0,16937,3038,4146,7027,-8629,209,3913,-35720,1635432202.5318153,1635432202.547631,25
962,0,16942,3044,4159,7023,-8637,179,3916,-35723,1635432202.5318277,1635432202.547631,25
963,0,16951,3049,4159,7026,-8638,149,3917,-35729,1635432202.535556,1635432202.547631,25
964,0,16952,3051,4156,7026,-8641,174,3943,-35726,1635432202.535568,1635432202.547631,25
965,0,16951,3054,4151,7031,-8640,217,3957,-35726,1635432202.5395727,1635432202.547631,25
966,0,16949,3049,4149,7029,-8652,214,3923,-35729,1635432202.5395775,1635432202.547631,25
967,0,16924,3026,4123,7005,-8661,181,3892,-35719,1635432202.5438132,1635432202.547631,25
968,0,16888,2999,4099,6994,-8626,216,3901,-35727,1635432202.5438223,1635432202.547631,25
969,0,16888,2989,4094,6991,-8622,235,3934,-35727,1635432202.5477016,1635432202.547631,25
970,0,16911,3020,4134,7032,-8596,198,3923,-35717,1635432202.5477076,1635432202.547631,25
971,0,16931,3039,4146,7038,-8596,224,3904,-35719,1635432202.5516531,1635432202.547631,25
972,0,16943,3060,4155,7029,-8596,238,3898,-35718,1635432203,1635432202.547631,25
973,0,16941,3059,4150,7029,-8601,234,3903,-35723,1635432202.555572,1635432202.547631,25
974,0,16934,3050,4144,7035,-8606,228,3929,-35718,1635432202.5555742,1635432202.547631,25
975,0,16929,3049,4151,7039,-8622,177,3931,-35710,1635432202.5594833,1635432202.547631,25
976,0,16936,3050,4154,7028,-8642,109,3931,-35702,1635432202.5594864,1635432202.547631,25
977,0,16943,3060,4155,7029,-8596,238,3898,-35718,1635432203,1635432202.610229,26
978,0,16941,3059,4150,7029,-8601,234,3903,-35723,1635432202.555572,1635432202.610229,26
979,0,16934,3050,4144,7035,-8606,228,3929,-35718,1635432202.5555742,1635432202.610229,26
980,0,16929,3049,4151,7039,-8622,177,3931,-35710,1635432202.5594833,1635432202.610229,26
981,0,16936,3050,4154,7028,-8642,109,3931,-35702,1635432202.5594864,1635432202.610229,26
982,0,16962,3059,4158,7024,-8659,99,3941,-35692,1635432202.563657,1635432202.610229,26
983,0,16951,3049,4135,7008,-8660,193,3974,-35707,1635432202.563661,1635432202.610229,26
984,0,16962,3053,4119,6973,-8719,76,3989,-35710,1635432202.570318,1635432202.610229,26
985,0,16903,3013,4081,6952,-8727,-3,3916,-35692,1635432202.570323,1635432202.610229,26
986,0,16810,2957,4044,6957,-8656,172,3864,-35734,1635432202.612093,1635432202.610229,26
987,0,16800,2969,4073,7010,-8594,325,3911,-35761,1635432203,1635432202.610229,26
988,0,16849,2984,4086,7009,-8605,344,3891,-35749,1635432202.6121132,1635432202.610229,26
989,0,16874,2991,4099,7027,-8601,272,3881,-35716,1635432202.6121137,1635432202.610229,26
990,0,16872,2978,4088,7026,-8598,257,3865,-35707,1635432202.6121163,1635432202.610229,26
991,0,16936,3040,4131,7017,-8622,246,3871,-35699,1635432202.6121168,1635432202.610229,26
992,0,16966,3063,4139,7019,-8624,261,3921,-35651,1635432202.6121192,1635432202.610229,26
993,0,16952,3062,4145,7039,-8606,283,3942,-35637,1635432202.6121197,1635432202.610229,26
994,0,16912,3038,4115,7010,-8647,153,3869,-35772,1635432202.6121218,1635432202.610229,26
995,0,16909,3046,4126,7016,-8642,156,3854,-35809,1635432202.612122,1635432202.610229,26
996,0,16922,3051,4140,7042,-8616,203,3876,-35758,1635432202.6121244,1635432202.610229,26
997,0,16917,3038,4128,7038,-8614,211,3881,-35762,1635432202.6121247,1635432202.610229,26
998,0,16921,3048,4137,7041,-8624,219,3914,-35733,1635432202.6121273,1635432202.610229,26
999,0,16904,3076,4150,7049,-8641,191,3937,-35718,1635432202.6121273,1635432202.610229,26
1000,0,16881,3084,4154,7056,-8666,169,3954,-35724,1635432202.6121297,1635432202.610229,26
1001,0,16861,3068,4142,7059,-8699,88,3960,-35712,1635432203,1635432202.610229,26
1002,0,16858,3050,4129,7080,-8665,57,3965,-35739,1635432202.6121323,1635432202.610229,26
1003,0,16883,3012,4061,7003,-8652,206,3993,-35741,1635432202.6121325,1635432202.610229,26
1004,0,16918,3003,4036,6931,-8647,230,3921,-35704,1635432202.6121347,1635432202.610229,26
1005,0,16916,2996,4053,6949,-8607,233,3855,-35710,1635432202.6121352,1635432202.610229,26
1006,0,16910,3014,4092,7004,-8583,262,3871,-35718,1635432202.6121376,1635432202.610229,26
1007,0,16927,3029,4114,7025,-8618,203,3881,-35676,1635432202.6121378,1635432202.610229,26
1008,0,16998,3086,4167,7064,-8607,270,3953,-35662,1635432202.6160336,1635432202.610229,26
1009,0,17053,3144,4204,7078,-8593,261,3972,-35647,1635432202.6160388,1635432202.610229,26
1010,0,17005,3101,4148,7034,-8642,136,3909,-35717,1635432202.619656,1635432202.610229,26
1011,0,16947,3061,4103,7008,-8649,169,3856,-35789,1635432202.6196585,1635432202.610229,26
1012,0,16949,3073,4124,7039,-8644,218,3879,-35757,1635432202.6236022,1635432202.610229,26
1013,0,16914,3033,4096,7006,-8696,153,3959,-35722,1635432202.6236043,1635432202.610229,26
1014,0,16893,3039,4108,6972,-8762,93,4000,-35678,1635432202.627642,1635432202.610229,26
1015,0,16923,3073,4140,6973,-8840,-97,3993,-35656,1635432202.627646,1635432202.610229,26
1016,0,16593,2944,3974,6640,-9042,-97,3980,-35688,1635432202.6357727,1635432202.710496,27
1017,0,16446,2890,3914,6645,-8905,43,4059,-35697,1635432202.6357799,1635432202.710496,27
1018,0,16398,2899,3943,6769,-8637,394,3989,-35661,1635432202.639654,1635432202.710496,27
1019,0,16380,2826,3885,6817,-8509,583,3921,-35711,1635432202.639658,1635432202.710496,27
1020,0,16559,2830,3924,6743,-8576,422,3899,-35698,1635432202.6435747,1635432202.710496,27
1021,0,17069,3057,4142,6768,-8597,237,3885,-35569,1635432202.6435783,1635432202.710496,27
1022,0,17301,3124,4182,6775,-8611,300,3883,-35501,1635432202.647662,1635432202.710496,27
1023,0,17238,3177,4203,6781,-8592,399,3954,-35487,1635432202.647669,1635432202.710496,27
1024,0,16770,3161,4140,6619,-8593,478,4079,-35618,1635432202.6516109,1635432202.710496,27
1025,0,16541,3080,4085,6771,-8604,541,4143,-35686,1635432202.6516151,1635432202.710496,27
1026,0,16465,2846,3849,6425,-8982,237,3976,-35594,1635432202.6574328,1635432202.710496,27
1027,0,16266,2668,3701,6095,-9155,48,4010,-35677,1635432202.6574385,1635432202.710496,27
1028,0,16682,2809,3733,6029,-9046,-6,4035,-35730,1635432202.660055,1635432202.710496,27
1029,0,16741,2854,3623,5879,-9390,-157,4067,-35587,1635432202.660061,1635432202.710496,27
1030,0,16498,2709,3568,5815,-9604,-229,4087,-35624,1635432202.665161,1635432202.710496,27
1031,0,16758,2822,3808,6288,-9242,-27,4064,-35646,1635432202.6651702,1635432202.710496,27
1032,0,16860,3030,4134,7185,-8661,304,4084,-35647,1635432202.6678824,1635432202.710496,27
1033,0,16833,3038,4104,7129,-8775,298,3850,-35854,1635432202.6678913,1635432202.710496,27
1034,0,16658,2889,3799,5925,-9071,308,3738,-36001,1635432202.6719844,1635432202.710496,27
1035,0,16690,2944,3693,5249,-9206,301,4012,-35949,1635432202.6719904,1635432202.710496,27
1036,0,17117,2988,3417,5606,-9181,-24,4253,-35734,1635432202.6825478,1635432202.710496,27
1037,0,17517,3209,3463,6484,-9156,-117,4116,-35506,1635432202.6825593,1635432202.710496,27
1038,0,17331,3447,3724,6318,-9142,215,4210,-35402,1635432202.6825802,1635432202.710496,27
1039,0,17086,3444,3774,5155,-9491,57,4053,-35235,1635432202.6825807,1635432202.710496,27
1040,0,16677,3251,3844,4594,-9350,123,3888,-35547,1635432202.6841629,1635432202.710496,27
1041,0,16280,2814,3379,4450,-9927,-83,3669,-36066,1635432203,1635432202.710496,27
1042,0,16432,3138,3643,5417,-9356,278,4012,-35959,1635432202.688012,1635432202.710496,27
1043,0,16531,3433,3933,6262,-8387,736,4326,-35699,1635432202.688018,1635432202.710496,27
1044,0,16716,3592,4131,6709,-8532,156,3981,-35418,1635432202.6921458,1635432202.710496,27
1045,0,16862,3597,4006,6858,-8696,-91,3912,-35541,1635432202.692152,1635432202.710496,27
1046,0,17170,3564,3450,6068,-8992,-90,3884,-35734,1635432202.6956253,1635432202.710496,27
1047,0,16628,3219,2944,5431,-9161,-125,3778,-35977,1635432202.6956353,1635432202.710496,27
1048,0,15989,3047,2834,4351,-9727,-94,3752,-35972,1635432202.6998587,1635432202.710496,27
1049,0,15379,3464,3501,4378,-9592,320,4173,-36119,1635432202.6998713,1635432202.710496,27
1050,0,15423,3843,4294,5253,-9337,503,4189,-36122,1635432202.703764,1635432202.710496,27
1051,0,15124,3790,4304,5874,-9268,553,4133,-36040,1635432202.7037723,1635432202.710496,27
1052,0,13616,3596,4271,7036,-8671,801,4525,-35888,1635432202.7085984,1635432202.710496,27
1053,0,14684,3748,4581,8553,-8076,225,4250,-35298,1635432202.7086015,1635432202.710496,27
1054,0,15572,3541,4525,8683,-7701,564,4233,-35286,1635432202.7116404,1635432202.710496,27
1055,0,16851,3715,4607,7743,-8096,933,4492,-35592,1635432202.7116432,1635432202.710496,27
1056,0,19038,4443,4671,6743,-8797,299,4394,-35619,1635432202.716246,1635432202.710496,27
1057,0,18093,4109,4083,5464,-9554,-751,3952,-35747,1635432202.7162535,1635432202.710496,27
1058,0,17173,3709,3663,4675,-9895,-597,3858,-36027,1635432202.719671,1635432202.779429,28
1059,0,17106,3668,3713,5028,-9549,-107,3855,-35767,1635432202.719674,1635432202.779429,28
1060,0,16357,3509,3694,6002,-9431,-164,3954,-35594,1635432202.723699,1635432202.779429,28
1061,0,15472,3496,3759,6512,-9360,-388,4159,-35490,1635432202.723705,1635432202.779429,28
1062,0,15790,3688,3959,6652,-8597,117,4422,-35686,1635432202.7283626,1635432202.779429,28
1063,0,16229,3679,3585,5846,-8916,343,4172,-35626,1635432202.7283683,1635432202.779429,28
1064,0,17174,3703,3388,5224,-9859,251,3732,-35548,1635432202.7322748,1635432202.779429,28
1065,0,17356,3979,3560,4621,-9938,187,3836,-35246,1635432203,1635432202.779429,28
1066,0,16610,3935,3538,5486,-9151,484,4091,-35322,1635432202.7358124,1635432202.779429,28
1067,0,16999,4083,3487,6280,-8910,135,4017,-35617,1635432202.7358212,1635432202.779429,28
1068,0,16909,3786,2948,5207,-9792,-524,3929,-35766,1635432202.7396004,1635432202.779429,28
1069,0,17016,3207,1724,2990,-10537,-798,3704,-35719,1635432202.7396033,1635432202.779429,28
1070,0,17361,3410,1460,3442,-10061,-387,3827,-35616,1635432202.7439916,1635432202.779429,28
1071,0,17188,3736,2071,6593,-8926,383,4122,-35688,1635432202.7439961,1635432202.779429,28
1072,0,17293,4050,2775,6783,-8504,563,4316,-35721,1635432202.7475767,1635432202.779429,28
1073,0,17281,4119,2964,5424,-8992,425,4213,-35664,1635432202.747582,1635432202.779429,28
1074,0,16854,3928,3333,5486,-8990,349,3828,-35898,1635432202.751953,1635432202.779429,28
1075,0,16667,4076,3978,5466,-9286,76,3641,-35832,1635432202.751959,1635432202.779429,28
1076,0,16686,4241,4458,5948,-9282,-24,3667,-35699,1635432202.756146,1635432202.779429,28
1077,0,16660,4261,4699,6889,-8884,-72,3741,-35739,1635432202.756152,1635432202.779429,28
1078,0,16967,4694,5201,8304,-8284,219,4174,-35760,1635432202.7599967,1635432202.779429,28
1079,0,17118,4966,5374,8978,-8319,653,4533,-35537,1635432202.7600024,1635432202.779429,28
1080,0,17340,5141,5178,7841,-8599,502,4621,-35155,1635432202.7642329,1635432202.779429,28
1081,0,17173,5006,4871,6528,-8613,326,4383,-35227,1635432202.7642517,1635432202.779429,28
1082,0,16286,4324,4050,5544,-9031,35,3969,-35437,1635432202.7676966,1635432202.779429,28
1083,0,15148,4004,3558,5273,-9449,-373,3721,-36113,1635432202.767706,1635432202.779429,28
1084,0,14228,4258,3876,5796,-8896,144,4113,-36320,1635432203,1635432202.779429,28
1085,0,14762,4649,4483,7214,-8135,652,4346,-35747,1635432202.771675,1635432202.779429,28
1086,0,15094,4775,4881,8576,-7436,1066,4468,-35950,1635432202.7754953,1635432202.779429,28
1087,0,16443,5101,5054,8334,-7245,1377,4506,-36048,1635432202.7754974,1635432202.779429,28
1088,0,16399,5313,5090,8253,-7374,1442,4490,-35856,1635432202.7834752,1635432202.779429,28
1089,0,15486,4896,4726,7904,-8007,693,4374,-35719,1635432203,1635432202.779429,28
1090,0,15679,4296,3912,6793,-9071,-497,4093,-35528,1635432202.785032,1635432202.779429,28
1091,0,16203,4063,3606,6329,-9432,-987,4062,-35957,1635432202.785036,1635432202.779429,28
1092,0,17029,5409,4785,7498,-8025,1043,4730,-35407,1635432202.797088,1635432202.848303,29
1093,0,17369,5624,4793,7119,-9137,646,4459,-35657,1635432202.7970915,1635432202.848303,29
1094,0,17231,5578,4544,5858,-9737,607,4650,-35533,1635432202.7997787,1635432202.848303,29
1095,0,17098,5435,4166,4439,-9889,389,4454,-35570,1635432202.7997842,1635432202.848303,29
1096,0,17018,4946,3464,3158,-10399,-519,3488,-35606,1635432203,1635432202.848303,29
1097,0,16519,4794,3380,3725,-10133,-361,3596,-35978,1635432202.8036852,1635432202.848303,29
1098,0,15403,4779,3738,6650,-9037,20,3930,-36171,1635432202.8080535,1635432202.848303,29
1099,0,14327,4576,3994,8559,-8299,296,4146,-35854,1635432202.8080592,1635432202.848303,29
1100,0,14979,4446,3541,6468,-9099,294,4364,-35423,1635432202.811723,1635432202.848303,29
1101,0,16209,4588,2891,3995,-10189,-286,4224,-35444,1635432202.8117297,1635432202.848303,29
1102,0,17536,4926,2579,4891,-9514,-252,4025,-35695,1635432202.8159308,1635432202.848303,29
1103,0,18223,5447,2850,6764,-8632,434,4169,-35886,1635432202.8159368,1635432202.848303,29
1104,0,17927,5376,3198,6759,-8580,208,4124,-35881,1635432202.8199427,1635432202.848303,29
1105,0,17541,5386,3779,5951,-9008,-246,4024,-35747,1635432202.819949,1635432202.848303,29
1106,0,17143,5421,4317,6580,-8892,-242,4034,-35697,1635432202.8241184,1635432202.848303,29
1107,0,16878,5326,4289,7377,-8599,-49,3938,-35691,1635432202.8241243,1635432202.848303,29
1108,0,16707,5166,3786,6493,-9006,43,3933,-35611,1635432202.827714,1635432202.848303,29
1109,0,16644,5140,3643,6277,-9301,-237,4166,-35662,1635432202.8277266,1635432202.848303,29
1110,0,16691,5310,4190,6849,-9197,-207,4130,-35671,1635432202.8322396,1635432202.848303,29
1111,0,16766,5702,4863,7554,-8393,574,3987,-35659,1635432202.8322463,1635432202.848303,29
1112,0,16564,5728,5091,8028,-7456,1082,4001,-35734,1635432202.8356063,1635432202.848303,29
1113,0,16314,5786,5233,8099,-7464,823,4056,-35697,1635432202.8356133,1635432202.848303,29
1114,0,15873,5692,5118,7549,-7928,463,4098,-35696,1635432202.8400054,1635432202.848303,29
1115,0,16049,5626,4901,6623,-8528,483,4216,-35782,1635432202.8400354,1635432202.848303,29
1116,0,16102,5675,4893,6790,-8114,863,4406,-36050,1635432202.8436935,1635432202.848303,29
1117,0,15984,5751,4821,7301,-7921,939,4378,-36031,1635432202.8437002,1635432202.848303,29
1118,0,14778,5431,4611,7431,-8132,808,4264,-35842,1635432202.8496304,1635432202.848303,29
1119,0,15212,5286,4603,7544,-8291,598,4174,-35682,1635432202.8496351,1635432202.848303,29
1120,0,16610,5528,4760,7473,-8461,433,4138,-35372,1635432202.8516204,1635432202.848303,29
1121,0,18398,6110,5101,7516,-8214,710,4454,-35304,1635432202.8516238,1635432202.848303,29
1122,0,18143,6256,5140,7503,-8116,658,4394,-35819,1635432202.8556871,1635432202.848303,29
1123,0,17669,6135,5064,7541,-8138,378,4179,-35914,1635432202.8556895,1635432202.848303,29
1124,0,16626,5900,4904,7479,-8200,374,4204,-35834,1635432202.8603988,1635432202.848303,29
1125,0,14221,4953,4030,6776,-8808,-20,3689,-35701,1635432202.8604107,1635432202.848303,29
1126,0,18398,6110,5101,7516,-8214,710,4454,-35304,1635432202.8516238,1635432202.926476,30
1127,0,18143,6256,5140,7503,-8116,658,4394,-35819,1635432202.8556871,1635432202.926476,30
1128,0,17669,6135,5064,7541,-8138,378,4179,-35914,1635432202.8556895,1635432202.926476,30
1129,0,16626,5900,4904,7479,-8200,374,4204,-35834,1635432202.8603988,1635432202.926476,30
1130,0,14221,4953,4030,6776,-8808,-20,3689,-35701,1635432202.8604107,1635432202.926476,30
1131,0,13479,4484,3634,6384,-9132,-140,3746,-35860,1635432202.8635664,1635432202.926476,30
1132,0,14693,4688,3943,6686,-8806,175,4139,-35738,1635432202.8635695,1635432202.926476,30
1133,0,17040,5264,4394,6766,-8575,411,4234,-35522,1635432202.8722868,1635432202.926476,30
1134,0,17716,5866,4854,6862,-8332,544,4296,-35471,1635432202.8722932,1635432202.926476,30
1135,0,16443,5927,4976,7118,-8314,508,4548,-35476,1635432202.8723056,1635432202.926476,30
1136,0,16271,6039,5216,7443,-8109,484,4553,-35771,1635432202.872306,1635432202.926476,30
1137,0,16859,5813,5060,7431,-8267,602,3978,-36151,1635432202.875638,1635432202.926476,30
1138,0,17959,5756,4888,7259,-8549,399,3563,-36479,1635432202.8756435,1635432202.926476,30
1139,0,17684,5664,4634,6601,-8860,39,3692,-36282,1635432202.8809636,1635432202.926476,30
1140,0,16649,5079,3924,4771,-9720,-426,3868,-35721,1635432202.8809729,1635432202.926476,30
1141,0,16674,5281,4041,4384,-9926,-330,4081,-35319,1635432202.8843336,1635432202.926476,30
1142,0,16653,5569,4543,6729,-9079,319,4179,-35524,1635432202.8843396,1635432202.926476,30
1143,0,16137,5458,4760,8164,-8518,406,4178,-35597,1635432202.8923495,1635432202.926476,30
1144,0,16350,5509,4845,7933,-8237,328,4139,-35614,1635432202.8923557,1635432202.926476,30
1145,0,16864,5361,4528,7128,-8746,143,3792,-35843,1635432202.892368,1635432202.926476,30
1146,0,17241,5513,4364,6658,-8793,86,3865,-35822,1635432202.8923686,1635432202.926476,30
1147,0,17142,5703,4349,6416,-8731,409,4024,-35822,1635432202.8959377,1635432202.926476,30
1148,0,17046,5868,4628,6819,-8557,411,3960,-35854,1635432202.8959508,1635432202.926476,30
1149,0,16866,5624,4327,6518,-8947,155,3973,-35815,1635432202.8996823,1635432202.926476,30
1150,0,16499,5199,3751,5849,-9677,-318,4029,-35892,1635432202.8996878,1635432202.926476,30
1151,0,16561,5198,3732,5776,-9353,-362,4196,-35490,1635432202.903699,1635432202.926476,30
1152,0,16673,5420,4014,5793,-8679,128,4298,-35428,1635432202.903704,1635432202.926476,30
1153,0,16938,5881,4704,6624,-8214,748,4319,-35502,1635432202.9080389,1635432202.926476,30
1154,0,16896,6027,5416,7947,-8326,858,4153,-35825,1635432202.9080448,1635432202.926476,30
1155,0,16768,5997,5704,7888,-8206,474,3932,-36148,1635432202.9173808,1635432202.926476,30
1156,0,16740,5845,5226,7273,-8196,323,3854,-36158,1635432202.917386,1635432202.926476,30
1157,0,16679,5635,4845,7013,-8418,260,3967,-35881,1635432202.9173963,1635432202.926476,30
1158,0,16679,5666,4879,7287,-8496,88,4068,-35714,1635432202.9173968,1635432202.926476,30
1159,0,16645,5636,4733,7391,-8411,116,4026,-35702,1635432202.9196715,1635432202.926476,30
1160,0,16694,5700,4688,7017,-8344,373,3992,-35754,1635432202.9196737,1635432202.926476,30
1161,0,16708,5777,4866,6874,-8293,702,4036,-35735,1635432202.923653,1635432202.926476,30
1162,0,16621,5917,5212,7323,-8251,771,4153,-35655,1635432202.9236548,1635432202.926476,30
1163,0,16134,5952,5416,7821,-8269,659,4175,-35747,1635432202.927591,1635432202.926476,30
1164,0,15950,5610,5098,7523,-8589,329,3988,-35776,1635432202.9275947,1635432202.926476,30
1165,0,16088,5319,4816,7085,-8801,83,3978,-35795,1635432202.9319246,1635432202.995452,31
1166,0,16537,5447,4871,7093,-8745,66,4054,-35781,1635432202.9319284,1635432202.995452,31
1167,0,16426,5641,4998,7209,-8546,276,4091,-35859,1635432202.9357595,1635432202.995452,31
1168,0,16386,5658,5028,7258,-8396,527,4066,-35815,1635432202.9357667,1635432202.995452,31
1169,0,16839,5860,5200,7396,-8284,461,4084,-35562,1635432202.9443276,1635432202.995452,31
1170,0,17064,6037,5372,7569,-8133,472,4067,-35697,1635432202.9443479,1635432202.995452,31
1171,0,16820,5964,5348,7576,-8122,593,4074,-36016,1635432202.944358,1635432202.995452,31
1172,0,16591,5720,5115,7324,-8351,449,3939,-36178,1635432202.9443583,1635432202.995452,31
1173,0,16459,5541,4939,7123,-8544,261,3878,-35937,1635432202.977923,1635432202.995452,31
1174,0,16828,5626,4952,7065,-8659,176,3918,-35673,1635432202.9779289,1635432202.995452,31
1175,0,16956,5751,5019,7088,-8637,231,3964,-35672,1635432202.9779413,1635432202.995452,31
1176,0,16813,5724,4996,7101,-8601,298,3983,-35679,1635432202.9779415,1635432202.995452,31
1177,0,16660,5705,4984,7109,-8582,323,4010,-35686,1635432202.9779444,1635432202.995452,31
1178,0,16576,5821,5164,7271,-8460,394,4084,-35619,1635432202.9779449,1635432202.995452,31
1179,0,16677,5891,5286,7383,-8371,459,4145,-35567,1635432202.9779472,1635432202.995452,31
1180,0,16694,5722,5168,7298,-8442,401,4039,-35844,1635432202.9779477,1635432202.995452,31
1181,0,17063,5698,5088,7191,-8573,282,3942,-35921,1635432203,1635432202.995452,31
1182,0,16998,5686,4987,7161,-8627,259,3961,-35794,1635432202.9779503,1635432202.995452,31
1183,0,16836,5656,4832,7136,-8632,306,4014,-35796,1635432202.9779527,1635432202.995452,31
1184,0,16818,5690,4753,7188,-8547,283,4051,-35772,1635432202.9779532,1635432202.995452,31
1185,0,16779,5670,4814,7167,-8493,265,4005,-35741,1635432202.9779558,1635432202.995452,31
1186,0,16750,5661,5148,7139,-8521,287,3968,-35776,1635432202.977956,1635432202.995452,31
1187,0,16729,5660,5349,7259,-8501,302,3986,-35822,1635432202.9779584,1635432202.995452,31
1188,0,16698,5661,5360,7401,-8474,317,4031,-35865,1635432202.977959,1635432202.995452,31
1189,0,16673,5631,5267,7299,-8577,174,3984,-35779,1635432202.9807808,1635432202.995452,31
1190,0,16628,5589,5196,7242,-8569,271,3959,-35784,1635432202.9807923,1635432202.995452,31
1191,0,16686,5590,5168,7251,-8526,405,3988,-35821,1635432203,1635432202.995452,31
1192,0,16778,5599,5141,7236,-8552,360,3950,-35802,1635432202.9841268,1635432202.995452,31
1193,0,16878,5621,5173,7236,-8564,323,3961,-35782,1635432202.991577,1635432202.995452,31
1194,0,16841,5665,5253,7258,-8552,351,4024,-35793,1635432202.9915812,1635432202.995452,31
1195,0,16804,5664,5253,7246,-8592,334,4008,-35773,1635432202.9917932,1635432202.995452,31
1196,0,16788,5616,5191,7196,-8649,233,3955,-35721,1635432202.9917953,1635432202.995452,31
1197,0,16761,5563,5138,7055,-8626,209,3973,-35769,1635432202.995507,1635432202.995452,31
1198,0,16733,5508,5080,6956,-8654,179,3948,-35812,1635432202.9955091,1635432202.995452,31
1199,0,16743,5090,5220,7150,-8702,94,4073,-35791,1635432203.011732,1635432203.048632,32
1200,0,16753,5056,5230,7174,-8657,22,4077,-35777,1635432203.0117393,1635432203.048632,32
1201,0,16741,5026,5211,7044,-8676,187,4041,-35777,1635432203.0164356,1635432203.048632,32
1202,0,16782,5043,5258,7079,-8612,309,3981,-35773,1635432203.0164435,1635432203.048632,32
1203,0,16791,5038,5310,7276,-8505,448,3929,-35785,1635432203.0200477,1635432203.048632,32
1204,0,16782,5015,5336,7290,-8505,451,3949,-35767,1635432203.020054,1635432203.048632,32
1205,0,16743,4954,5333,7290,-8527,407,3974,-35786,1635432203.0269608,1635432203.048632,32
1206,0,16704,4844,5355,7301,-8539,388,3991,-35826,1635432203.0269673,1635432203.048632,32
1207,0,16692,4758,5366,7258,-8532,406,4026,-35848,1635432203.0278254,1635432203.048632,32
1208,0,16709,4712,5384,7190,-8609,294,3957,-35788,1635432203.0278306,1635432203.048632,32
1209,0,16785,4730,5443,7193,-8631,256,3956,-35764,1635432203.032411,1635432203.048632,32
1210,0,16793,4698,5456,7202,-8616,271,3968,-35778,1635432203.032418,1635432203.048632,32
1211,0,16795,4659,5443,7191,-8612,282,3979,-35784,1635432203.0356715,1635432203.048632,32
1212,0,16777,4627,5444,7188,-8576,373,4059,-35812,1635432203.035678,1635432203.048632,32
1213,0,16763,4573,5413,7146,-8611,342,4053,-35806,1635432203.0399868,1635432203.048632,32
1214,0,16766,4557,5418,7142,-8646,228,3958,-35775,1635432203.0399928,1635432203.048632,32
1215,0,16782,4561,5437,7138,-8662,219,3952,-35761,1635432203.0459616,1635432203.048632,32
1216,0,16753,4545,5451,7147,-8633,280,3966,-35782,1635432203.0468256,1635432203.048632,32
1217,0,16756,4556,5474,7170,-8619,301,3979,-35781,1635432203.047711,1635432203.048632,32
1218,0,16738,4536,5482,7169,-8621,293,3992,-35775,1635432203.0477152,1635432203.048632,32
1219,0,16706,4503,5484,7177,-8617,293,3998,-35783,1635432203.0517917,1635432203.048632,32
1220,0,16709,4481,5481,7169,-8618,291,3993,-35786,1635432203.051797,1635432203.048632,32
1221,0,16775,4502,5485,7158,-8627,281,3983,-35779,1635432203.0556176,1635432203.048632,32
1222,0,16787,4478,5471,7148,-8626,288,3993,-35781,1635432203.0556197,1635432203.048632,32
1223,0,16789,4449,5451,7133,-8641,280,3991,-35786,1635432203.0595794,1635432203.048632,32
1224,0,16799,4474,5443,7124,-8655,273,3986,-35789,1635432203.0595825,1635432203.048632,32
1225,0,16706,4503,5484,7177,-8617,293,3998,-35783,1635432203.0517917,1635432203,33
1226,0,16709,4481,5481,7169,-8618,291,3993,-35786,1635432203.051797,1635432203,33
1227,0,16775,4502,5485,7158,-8627,281,3983,-35779,1635432203.0556176,1635432203,33
1228,0,16787,4478,5471,7148,-8626,288,3993,-35781,1635432203.0556197,1635432203,33
1229,0,16789,4449,5451,7133,-8641,280,3991,-35786,1635432203.0595794,1635432203,33
1230,0,16799,4474,5443,7124,-8655,273,3986,-35789,1635432203.0595825,1635432203,33
1231,0,16818,4508,5456,7138,-8654,273,3993,-35779,1635432203.0636003,1635432203,33
1232,0,16816,4518,5484,7143,-8656,277,4008,-35779,1635432203.0636036,1635432203,33
1233,0,16783,4499,5483,7133,-8661,264,4001,-35792,1635432203.0688217,1635432203,33
1234,0,16641,4462,5441,7109,-8675,251,3993,-35774,1635432203.0688329,1635432203,33
1235,0,16577,4416,5413,7106,-8660,250,3986,-35739,1635432203.0716116,1635432203,33
1236,0,16577,4374,5426,7120,-8642,281,4018,-35706,1635432203.071616,1635432203,33
1237,0,16701,4419,5499,7172,-8602,313,4016,-35676,1635432203.0771942,1635432203,33
1238,0,16966,4528,5582,7203,-8581,318,4019,-35661,1635432203.0771973,1635432203,33
1239,0,16903,4532,5572,7178,-8605,308,4021,-35747,1635432203.0803833,1635432203,33
1240,0,16794,4479,5523,7130,-8651,271,3982,-35794,1635432203,1635432203,33
1241,0,16783,4404,5479,7099,-8674,243,3949,-35819,1635432203.083707,1635432203,33
1242,0,16779,4363,5476,7106,-8664,267,3966,-35834,1635432203.0837145,1635432203,33
1243,0,16790,4361,5501,7125,-8641,301,3992,-35797,1635432203.087712,1635432203,33
1244,0,16818,4373,5529,7120,-8663,274,4003,-35776,1635432203.0877166,1635432203,33
1245,0,16829,4371,5555,7123,-8694,178,4028,-35743,1635432203.0919428,1635432203,33
1246,0,16789,4351,5554,7138,-8668,136,4045,-35727,1635432203.0919468,1635432203,33
1247,0,16749,4324,5554,7157,-8608,202,4028,-35732,1635432203.0960095,1635432203,33
1248,0,16728,4308,5550,7177,-8567,317,4005,-35746,1635432203.0960143,1635432203,33
1249,0,16790,4290,5524,7141,-8607,359,4026,-35757,1635432203.0998175,1635432203,33
1250,0,16849,4294,5533,7143,-8607,328,4009,-35742,1635432203.099825,1635432203,33
1251,0,16814,4287,5548,7155,-8586,341,4020,-35748,1635432203,1635432203,33
1252,0,16833,4304,5563,7155,-8607,323,4030,-35732,1635432203.1037054,1635432203,33
1253,0,16838,4315,5559,7121,-8684,220,4044,-35729,1635432203.110091,1635432203,33
1254,0,16807,4292,5549,7107,-8706,218,4034,-35719,1635432203.110093,1635432203,33
1255,0,16800,4288,5559,7129,-8648,323,4030,-35734,1635432203.1117847,1635432203,33
1256,0,16814,4303,5586,7155,-8585,361,4025,-35724,1635432203.1117887,1635432203,33
1257,0,16821,4319,5594,7161,-8561,328,3999,-35700,1635432203.1161673,1635432203,33
1258,0,16838,4368,5619,7178,-8569,358,4021,-35741,1635432203.116172,1635432203,33
1259,0,16828,4336,5578,7121,-8644,308,4016,-35709,1635432203.121388,1635432203,33
1260,0,16815,4333,5586,7119,-8641,286,3989,-35683,1635432203.1213913,1635432203,33
1261,0,16812,4331,5586,7141,-8589,273,4026,-35695,1635432203.1238916,1635432203,33
1262,0,16825,4336,5569,7136,-8597,222,4040,-35692,1635432203.1238935,1635432203,33
1263,0,16822,4324,5558,7094,-8628,272,4068,-35692,1635432203.1277149,1635432203,33
1264,0,16819,4325,5573,7121,-8614,264,4020,-35697,1635432203.1277204,1635432203,33
1265,0,16806,4301,5563,7144,-8584,296,4042,-35710,1635432203.1321528,1635432203,33
1266,0,16819,4267,5603,7177,-8552,358,4094,-35717,1635432203.132157,1635432203,33
1267,0,16826,4195,5623,7170,-8568,357,4089,-35719,1635432203.1357772,1635432203,33
1268,0,16826,4146,5641,7163,-8587,313,4024,-35694,1635432203.1357844,1635432203,33
1269,0,16798,4112,5603,7131,-8595,336,4064,-35704,1635432203.139622,1635432203,33
1270,0,16811,4151,5648,7160,-8576,335,4059,-35697,1635432203.1396244,1635432203,33
1271,0,16795,4129,5634,7153,-8591,289,4046,-35707,1635432203.1557794,1635432203.211466,34
1272,0,16807,4138,5642,7156,-8575,301,4041,-35699,1635432203.1557798,1635432203.211466,34
1273,0,16810,4148,5641,7158,-8564,324,4058,-35716,1635432203.1558695,1635432203.211466,34
1274,0,16798,4121,5616,7139,-8597,325,4073,-35694,1635432203.1558719,1635432203.211466,34
1275,0,16808,4123,5635,7144,-8607,287,4045,-35674,1635432203.1600332,1635432203.211466,34
1276,0,16806,4111,5653,7143,-8615,269,4068,-35682,1635432203.1600387,1635432203.211466,34
1277,0,16802,4095,5650,7138,-8586,285,4079,-35696,1635432203.164071,1635432203.211466,34
1278,0,16831,4133,5688,7179,-8547,248,4071,-35717,1635432203.1640773,1635432203.211466,34
1279,0,16836,4099,5656,7144,-8589,278,4023,-35678,1635432203.1702478,1635432203.211466,34
1280,0,16841,4114,5680,7170,-8568,322,4001,-35690,1635432203.1702528,1635432203.211466,34
1281,0,16834,4104,5689,7161,-8568,321,4011,-35692,1635432203.1719396,1635432203.211466,34
1282,0,16774,4051,5667,7133,-8590,293,4021,-35680,1635432203.171945,1635432203.211466,34
1283,0,16754,4034,5650,7124,-8601,274,4025,-35677,1635432203.1759944,1635432203.211466,34
1284,0,16768,4027,5653,7124,-8591,291,4051,-35684,1635432203.1760004,1635432203.211466,34
1285,0,16763,3999,5644,7114,-8588,306,4066,-35685,1635432203.1806617,1635432203.211466,34
1286,0,16808,4021,5662,7134,-8579,272,4013,-35688,1635432203.1806664,1635432203.211466,34
1287,0,16809,4013,5638,7133,-8579,261,4024,-35684,1635432203.1841247,1635432203.211466,34
1288,0,16788,4020,5644,7133,-8591,236,4028,-35695,1635432203,1635432203.211466,34
1289,0,16770,4026,5669,7139,-8597,234,4051,-35691,1635432203.1879249,1635432203.211466,34
1290,0,16808,4049,5721,7150,-8601,255,4086,-35672,1635432203.187931,1635432203.211466,34
1291,0,16813,4041,5729,7156,-8586,266,4092,-35681,1635432203.1945372,1635432203.211466,34
1292,0,16824,4029,5701,7136,-8559,257,4072,-35691,1635432203.194543,1635432203.211466,34
1293,0,16869,4058,5712,7134,-8529,308,4023,-35702,1635432203.1963727,1635432203.211466,34
1294,0,16819,4024,5705,7138,-8514,406,4028,-35714,1635432203.1963837,1635432203.211466,34
1295,0,16792,3976,5684,7122,-8547,386,4058,-35719,1635432203.1998825,1635432203.211466,34
1296,0,16799,3986,5683,7121,-8571,333,4038,-35711,1635432203.1998923,1635432203.211466,34
1297,0,16787,3951,5663,7106,-8592,290,4021,-35693,1635432203.2037625,1635432203.211466,34
1298,0,16787,3909,5673,7110,-8584,299,4047,-35686,1635432203.203771,1635432203.211466,34
1299,0,16802,3920,5696,7114,-8576,301,4061,-35669,1635432203.2077098,1635432203.211466,34
1300,0,16833,3957,5738,7149,-8561,273,4042,-35689,1635432203.2077124,1635432203.211466,34
1301,0,16865,3990,5766,7153,-8569,246,4044,-35682,1635432203.2117198,1635432203.211466,34
1302,0,16868,3987,5755,7153,-8571,259,4062,-35674,1635432203.2117229,1635432203.211466,34
1303,0,16855,3961,5724,7134,-8571,298,4077,-35677,1635432203.217136,1635432203.211466,34
1304,0,16818,3920,5669,7100,-8586,323,4103,-35709,1635432203.2171419,1635432203.211466,34
1305,0,16855,3961,5724,7134,-8571,298,4077,-35677,1635432203.217136,1635432203.296035,35
1306,0,16818,3920,5669,7100,-8586,323,4103,-35709,1635432203.2171419,1635432203.296035,35
1307,0,16773,3862,5633,7066,-8605,351,4143,-35719,1635432203,1635432203.296035,35
1308,0,16769,3861,5688,7086,-8604,363,4119,-35704,1635432203.227498,1635432203.296035,35
1309,0,16823,3912,5762,7148,-8571,275,4049,-35695,1635432203.227519,1635432203.296035,35
1310,0,16829,3928,5798,7197,-8501,319,4016,-35697,1635432203.2275195,1635432203.296035,35
1311,0,16803,3888,5744,7164,-8515,368,3994,-35697,1635432203.2276888,1635432203.296035,35
1312,0,16762,3829,5678,7119,-8562,336,4003,-35704,1635432203.2276912,1635432203.296035,35
1313,0,16771,3842,5695,7128,-8557,336,4031,-35705,1635432203.2323575,1635432203.296035,35
1314,0,16806,3879,5740,7151,-8536,350,4064,-35717,1635432203.232365,1635432203.296035,35
1315,0,16794,3861,5754,7142,-8542,380,4095,-35726,1635432203.2370508,1635432203.296035,35
1316,0,16775,3829,5718,7102,-8586,371,4096,-35699,1635432203.237059,1635432203.296035,35
1317,0,16808,3865,5764,7143,-8592,235,4001,-35673,1635432203.240109,1635432203.296035,35
1318,0,16795,3839,5754,7144,-8602,226,4021,-35677,1635432203.2401147,1635432203.296035,35
1319,0,16783,3777,5743,7133,-8605,245,4061,-35682,1635432203.243775,1635432203.296035,35
1320,0,16810,3762,5739,7126,-8616,215,4054,-35677,1635432203.2437823,1635432203.296035,35
1321,0,16810,3731,5759,7124,-8622,211,4032,-35684,1635432203.2502797,1635432203.296035,35
1322,0,16836,3728,5794,7131,-8625,234,4032,-35683,1635432203.2502968,1635432203.296035,35
1323,0,16798,3689,5770,7113,-8637,194,4058,-35697,1635432203.251944,1635432203.296035,35
1324,0,16759,3625,5730,7114,-8602,213,4074,-35709,1635432203.2519498,1635432203.296035,35
1325,0,16793,3613,5733,7118,-8594,318,4082,-35708,1635432203.2559533,1635432203.296035,35
1326,0,16811,3641,5758,7132,-8581,313,4057,-35695,1635432203.2559593,1635432203.296035,35
1327,0,16699,3649,5770,7150,-8544,343,4051,-35695,1635432203.259905,1635432203.296035,35
1328,0,16663,3648,5778,7160,-8502,412,4093,-35708,1635432203.259911,1635432203.296035,35
1329,0,16713,3631,5772,7168,-8498,401,4107,-35722,1635432203.2638855,1635432203.296035,35
1330,0,16754,3636,5772,7148,-8541,393,4098,-35719,1635432203.2638915,1635432203.296035,35
1331,0,16803,3637,5755,7122,-8579,326,4027,-35678,1635432203,1635432203.296035,35
1332,0,16739,3631,5749,7114,-8598,283,4035,-35673,1635432203.2687097,1635432203.296035,35
1333,0,16700,3636,5773,7141,-8562,327,4044,-35677,1635432203.2717552,1635432203.296035,35
1334,0,16745,3647,5792,7166,-8522,301,4038,-35689,1635432203.2717605,1635432203.296035,35
1335,0,16915,3671,5790,7151,-8548,306,4036,-35707,1635432203.275886,1635432203.296035,35
1336,0,16938,3674,5783,7129,-8557,318,4051,-35711,1635432203.2758882,1635432203.296035,35
1337,0,16863,3679,5799,7138,-8556,317,4072,-35692,1635432203,1635432203.296035,35
1338,0,16833,3655,5794,7148,-8550,309,4064,-35696,1635432203.2806163,1635432203.296035,35
1339,0,16831,3657,5799,7144,-8555,293,4056,-35696,1635432203.2838125,1635432203.296035,35
1340,0,16831,3668,5813,7150,-8546,317,4036,-35697,1635432203,1635432203.296035,35
1341,0,16812,3661,5805,7142,-8552,325,4034,-35712,1635432203.2877157,1635432203.296035,35
1342,0,16791,3642,5788,7128,-8559,317,4046,-35716,1635432203.287718,1635432203.296035,35
1343,0,16776,3636,5784,7131,-8554,302,4034,-35709,1635432203.2962584,1635432203.296035,35
1344,0,16786,3655,5819,7155,-8539,305,4032,-35710,1635432203.2962608,1635432203.296035,35
1345,0,16779,3646,5806,7150,-8539,307,4046,-35710,1635432203.2962687,1635432203.296035,35
1346,0,16761,3621,5785,7129,-8561,282,4055,-35701,1635432203.2962692,1635432203.296035,35
1347,0,16784,3651,5813,7131,-8554,328,4045,-35707,1635432203.3123105,1635432203.349549,36
1348,0,16773,3639,5821,7136,-8545,343,4028,-35686,1635432203.3123207,1635432203.349549,36
1349,0,16753,3634,5823,7125,-8557,363,4077,-35705,1635432203.3482194,1635432203.349549,36
1350,0,16771,3649,5835,7135,-8553,331,4094,-35699,1635432203.3482249,1635432203.349549,36
1351,0,16758,3661,5840,7133,-8553,341,4089,-35689,1635432203.3482373,1635432203.349549,36
1352,0,16733,3661,5831,7133,-8550,352,4066,-35689,1635432203.3482375,1635432203.349549,36
1353,0,16735,3643,5801,7110,-8572,309,4031,-35694,1635432203.3482404,1635432203.349549,36
1354,0,16737,3641,5798,7093,-8586,224,4046,-35692,1635432203.3482409,1635432203.349549,36
1355,0,16797,3664,5841,7115,-8556,258,4071,-35654,1635432203.3482432,1635432203.349549,36
1356,0,16828,3669,5855,7128,-8534,317,4086,-35638,1635432203.3482437,1635432203.349549,36
1357,0,16774,3616,5796,7086,-8579,271,4001,-35737,1635432203.348246,1635432203.349549,36
1358,0,16696,3579,5791,7098,-8584,255,4036,-35776,1635432203.348246,1635432203.349549,36
1359,0,16746,3594,5824,7113,-8593,231,4082,-35716,1635432203.3482487,1635432203.349549,36
1360,0,16846,3660,5861,7118,-8595,310,4105,-35716,1635432203.3482492,1635432203.349549,36
1361,0,16843,3691,5893,7156,-8524,421,4103,-35717,1635432203.3482513,1635432203.349549,36
1362,0,16850,3718,5926,7197,-8483,390,4068,-35707,1635432203.3482516,1635432203.349549,36
1363,0,16844,3729,5938,7209,-8476,362,4034,-35714,1635432203.348254,1635432203.349549,36
1364,0,16838,3722,5934,7206,-8463,392,4040,-35728,1635432203.3482544,1635432203.349549,36
1365,0,16837,3711,5924,7180,-8484,398,4068,-35715,1635432203.3482568,1635432203.349549,36
1366,0,16823,3692,5899,7154,-8509,383,4079,-35702,1635432203.3482573,1635432203.349549,36
