Sample_num,Task_number,EMG1,EMG2,EMG3,EMG4,EMG5,EMG6,EMG7,EMG8,Timestamp,Video_timestamp,Angle_sample
0,0,144467,218195,365528,333131,464653,253894,48568,-354176,1636549352.9402092,1636549352.989301,0
1,0,144409,218136,365438,333034,464563,253803,48486,-354239,1636549352.9402125,1636549352.989301,0
2,0,144458,218135,365438,333029,464561,253784,48460,-354216,1636549352.9424093,1636549352.989301,0
3,0,144389,218054,365401,332998,464526,253734,48324,-354326,1636549352.9424112,1636549352.989301,0
4,0,144499,218213,365555,333148,464656,253856,48368,-354250,1636549352.9464755,1636549352.989301,0
5,0,144578,218333,365683,333298,464789,254006,48478,-354298,1636549352.946478,1636549352.989301,0
6,0,144497,218224,365570,333200,464734,254029,48656,-354384,1636549352.9499931,1636549352.989301,0
7,0,144334,218039,365379,333001,464552,253896,48604,-354354,1636549352.9499955,1636549352.989301,0
8,0,144404,218050,365386,332962,464510,253837,48520,-354145,1636549352.9545505,1636549352.989301,0
9,0,144449,218019,365358,332928,464453,253763,48470,-354056,1636549352.954554,1636549352.989301,0
10,0,144316,217949,365334,332935,464477,253776,48451,-354240,1636549352.958382,1636549352.989301,0
11,0,144364,218050,365418,333037,464582,253873,48516,-354214,1636549352.958384,1636549352.989301,0
12,0,144419,218184,365531,333118,464647,253914,48514,-354221,1636549352.9629493,1636549352.989301,0
13,0,144409,218105,365438,333044,464563,253858,48472,-354217,1636549352.9629517,1636549352.989301,0
14,0,144390,218046,365382,332966,464476,253782,48408,-354285,1636549352.9661732,1636549352.989301,0
15,0,144400,217983,365390,332991,464516,253801,48444,-354231,1636549352.9661763,1636549352.989301,0
16,0,144452,217951,365346,332991,464532,253828,48478,-354143,1636549352.9701505,1636549352.989301,0
17,0,144367,218039,365353,332986,464509,253778,48320,-354319,1636549352.9701564,1636549352.989301,0
18,0,144441,218265,365588,333151,464626,253856,48379,-354320,1636549352.9741027,1636549352.989301,0
19,0,144400,218101,365431,333038,464546,253804,48541,-354245,1636549352.9741063,1636549352.989301,0
20,0,144426,218106,365411,333008,464554,253824,48625,-354156,1636549352.978178,1636549352.989301,0
21,0,144389,218081,365399,332998,464522,253792,48511,-354236,1636549352.9781804,1636549352.989301,0
22,0,144485,218153,365490,333104,464623,253869,48493,-354214,1636549352.9822462,1636549352.989301,0
23,0,144471,218131,365449,333054,464561,253835,48468,-354256,1636549352.982263,1636549352.989301,0
24,0,144444,218118,365433,333037,464561,253826,48487,-354352,1636549352.9875646,1636549352.989301,0
25,0,144493,218216,365543,333164,464697,253934,48519,-354518,1636549352.9875667,1636549352.989301,0
26,0,144438,218280,365637,333254,464781,254019,48561,-354440,1636549352.9923975,1636549352.989301,0
27,0,144379,218130,365444,333031,464543,253781,48380,-354267,1636549352.9924052,1636549352.989301,0
28,0,144448,218038,365328,332894,464399,253656,48346,-353972,1636549352.9959705,1636549352.989301,0
29,0,144408,218016,365320,332914,464433,253679,48358,-354169,1636549352.9959729,1636549352.989301,0
30,0,144488,218104,365390,333003,464548,253808,48504,-354177,1636549352.9995012,1636549352.989301,0
31,0,144419,218065,365319,332959,464508,253784,48499,-354202,1636549352.999508,1636549352.989301,0
32,0,144459,218109,365381,333037,464538,253798,48409,-354205,1636549353.0030622,1636549352.989301,0
33,0,144508,218159,365443,333089,464578,253838,48423,-354135,1636549353.003065,1636549352.989301,0
34,0,144371,218105,365326,332949,464469,253766,48384,-354354,1636549353.0218804,1636549353.158824,1
35,0,144490,218215,365482,333053,464565,253848,48577,-354208,1636549353.0218823,1636549353.158824,1
36,0,144513,218153,365484,333060,464583,253860,48539,-354168,1636549353.026158,1636549353.158824,1
37,0,144501,218078,365441,333031,464558,253854,48539,-354166,1636549353.026162,1636549353.158824,1
38,0,144486,218121,365451,333024,464548,253843,48541,-354184,1636549353.0339808,1636549353.158824,1
39,0,144434,218115,365443,332999,464509,253781,48443,-354257,1636549353.033983,1636549353.158824,1
40,0,144411,218084,365433,332999,464504,253755,48378,-354281,1636549353.0339932,1636549353.158824,1
41,0,144334,217997,365338,332914,464428,253684,48309,-354347,1636549353.0339935,1636549353.158824,1
42,0,144347,217958,365302,332917,464451,253722,48346,-354324,1636549353.0379329,1636549353.158824,1
43,0,144413,217969,365293,332934,464478,253788,48421,-354252,1636549353.037936,1636549353.158824,1
44,0,144483,218115,365459,333093,464605,253906,48516,-354196,1636549353.0424137,1636549353.158824,1
45,0,144456,218001,365376,332984,464510,253823,48449,-354220,1636549353.042425,1636549353.158824,1
46,0,144441,217866,365231,332879,464413,253713,48406,-354219,1636549353.046004,1636549353.158824,1
47,0,144454,218178,365494,333096,464583,253816,48430,-354247,1636549353.0460107,1636549353.158824,1
48,0,144556,218279,365544,333129,464604,253824,48416,-354214,1636549353.0499313,1636549353.158824,1
49,0,144400,218128,365423,333036,464511,253755,48368,-354297,1636549353.0499444,1636549353.158824,1
50,0,144477,218197,365507,333104,464597,253846,48454,-354194,1636549353.0553532,1636549353.158824,1
51,0,144416,218106,365428,333006,464504,253794,48412,-354266,1636549353.0553563,1636549353.158824,1
52,0,144419,218123,365458,333027,464542,253869,48501,-354381,1636549353.0578673,1636549353.158824,1
53,0,144398,218131,365500,333066,464578,253911,48489,-354552,1636549353,1636549353.158824,1
54,0,144331,218074,365462,333035,464520,253864,48384,-354486,1636549353.0619185,1636549353.158824,1
55,0,144403,218076,365472,333025,464491,253829,48382,-354146,1636549353.061921,1636549353.158824,1
56,0,144456,218004,365406,332969,464434,253761,48408,-353925,1636549353,1636549353.158824,1
57,0,144491,218049,365346,332929,464433,253779,48461,-354080,1636549353.067822,1636549353.158824,1
58,0,144434,218115,365476,333048,464513,253828,48460,-354214,1636549353.0698972,1636549353.158824,1
59,0,144402,218058,365443,333009,464494,253779,48319,-354413,1636549353.0698988,1636549353.158824,1
60,0,144424,218071,365417,332985,464491,253761,48261,-354562,1636549353.0738416,1636549353.158824,1
61,0,144382,217945,365366,332976,464468,253726,48247,-354466,1636549353.0738466,1636549353.158824,1
62,0,144429,217874,365331,332944,464456,253729,48413,-354142,1636549353.0783496,1636549353.158824,1
63,0,144436,218016,365302,332922,464439,253681,48408,-354049,1636549353.0783527,1636549353.158824,1
64,0,144441,218190,365417,333005,464483,253705,48301,-354241,1636549353.082014,1636549353.158824,1
65,0,144378,218058,365333,332944,464443,253689,48276,-354328,1636549353.0820167,1636549353.158824,1
66,0,144432,218079,365352,332943,464458,253761,48475,-354216,1636549353.0858765,1636549353.158824,1
67,0,144551,218168,365439,333032,464531,253877,48630,-354066,1636549353.085879,1636549353.158824,1
68,0,144561,218184,365470,333053,464559,253888,48579,-354079,1636549353.089769,1636549353.158824,1
69,0,144499,218122,365437,333020,464523,253833,48485,-354177,1636549353.0897715,1636549353.158824,1
70,0,144463,218085,365376,332970,464478,253798,48446,-354220,1636549353.0941422,1636549353.158824,1
71,0,144523,218145,365424,332998,464518,253813,48455,-354186,1636549353.0941548,1636549353.158824,1
72,0,144597,218199,365508,333069,464586,253859,48514,-354125,1636549353.1042004,1636549353.158824,1
73,0,144509,218082,365424,332964,464491,253779,48436,-354184,1636549353.104205,1636549353.158824,1
74,0,144421,217924,365256,332858,464384,253699,48354,-354272,1636549353.1042235,1636549353.158824,1
75,0,144537,218162,365471,333058,464559,253830,48457,-354207,1636549353.1042247,1636549353.158824,1
76,0,144573,218261,365548,333094,464591,253842,48463,-354200,1636549353.110821,1636549353.158824,1
77,0,144504,218129,365416,332983,464520,253778,48388,-354252,1636549353.1108296,1636549353.158824,1
78,0,144580,218181,365484,333054,464610,253859,48468,-354189,1636549353.1108663,1636549353.158824,1
79,0,144505,218103,365431,333022,464556,253801,48428,-354257,1636549353.1108675,1636549353.158824,1
80,0,144439,218016,365333,332898,464430,253681,48339,-354296,1636549353.1177716,1636549353.158824,1
81,0,144484,218098,365393,332930,464447,253697,48351,-354291,1636549353.1177773,1636549353.158824,1
82,0,144594,218175,365493,333034,464556,253807,48433,-354211,1636549353.1178756,1636549353.158824,1
83,0,144572,218091,365419,332977,464502,253757,48318,-354311,1636549353.117885,1636549353.158824,1
84,0,144603,218079,365403,332959,464500,253736,48224,-354356,1636549353.1218648,1636549353.158824,1
85,0,144670,218096,365405,332957,464501,253734,48241,-354287,1636549353.1218677,1636549353.158824,1
86,0,144635,218198,365539,333100,464643,253888,48431,-354229,1636549353.125929,1636549353.158824,1
87,0,144574,218202,365534,333076,464583,253860,48528,-354229,1636549353.1259356,1636549353.158824,1
88,0,144609,218156,365498,333036,464546,253859,48653,-354125,1636549353.1299846,1636549353.158824,1
89,0,144501,218000,365354,332913,464435,253723,48491,-354252,1636549353,1636549353.158824,1
90,0,144541,218035,365388,332954,464473,253742,48440,-354262,1636549353.134065,1636549353.158824,1
91,0,144637,218126,365474,333035,464553,253823,48506,-354174,1636549353.1340685,1636549353.158824,1
92,0,144667,218166,365531,333071,464591,253848,48484,-354259,1636549353.1378028,1636549353.158824,1
93,0,144716,218270,365667,333228,464754,253963,48381,-354519,1636549353.137805,1636549353.158824,1
94,0,144656,218259,365651,333201,464723,253921,48224,-354559,1636549353.1417959,1636549353.158824,1
95,0,144631,218144,365513,333042,464554,253778,48202,-354314,1636549353.1417978,1636549353.158824,1
96,0,144651,217910,365315,332866,464398,253672,48319,-353969,1636549353.1475012,1636549353.158824,1
97,0,144669,217874,365313,332912,464463,253794,48529,-354005,1636549353.147504,1636549353.158824,1
98,0,144669,218068,365474,333044,464571,253883,48559,-354208,1636549353.1509783,1636549353.158824,1
99,0,144568,218141,365502,332997,464499,253810,48469,-354417,1636549353.150982,1636549353.158824,1
100,0,144594,218034,365423,332922,464436,253766,48469,-354227,1636549353.1540098,1636549353.158824,1
101,0,144574,217979,365347,332859,464371,253689,48392,-354138,1636549353.1540136,1636549353.158824,1
102,0,144608,217941,365389,332921,464419,253727,48433,-354016,1636549353.1595068,1636549353.158824,1
103,0,144679,217918,365486,333016,464523,253817,48419,-354066,1636549353.159509,1636549353.158824,1
104,0,144713,217969,365400,332966,464523,253829,48353,-354139,1636549353.167837,1636549353.158824,1
105,0,144713,218246,365573,333039,464554,253844,48345,-354202,1636549353.1678417,1636549353.158824,1
106,0,144643,218076,365469,332932,464446,253759,48408,-354217,1636549353.1678565,1636549353.158824,1
107,0,144724,218072,365451,332939,464485,253818,48581,-354068,1636549353.1678572,1636549353.158824,1
108,0,144738,218111,365509,333010,464549,253856,48521,-354087,1636549353.1698277,1636549353.158824,1
109,0,144688,218068,365507,333006,464531,253799,48418,-354180,1636549353.1698291,1636549353.158824,1
110,0,144639,217994,365407,332923,464431,253724,48339,-354252,1636549353.1744597,1636549353.236433,2
111,0,144696,218056,365476,332992,464508,253804,48391,-354192,1636549353.1744623,1636549353.236433,2
112,0,144706,218056,365484,333002,464519,253800,48401,-354186,1636549353.1779604,1636549353.236433,2
113,0,144687,218036,365476,332981,464483,253779,48386,-354206,1636549353.1779633,1636549353.236433,2
114,0,144636,218048,365526,333050,464554,253834,48385,-354244,1636549353.1822207,1636549353.236433,2
115,0,144675,218048,365541,333041,464563,253837,48377,-354234,1636549353.182223,1636549353.236433,2
116,0,144682,218038,365502,333008,464504,253800,48416,-354186,1636549353.1866393,1636549353.236433,2
117,0,144708,218035,365483,332986,464494,253793,48434,-354146,1636549353.186641,1636549353.236433,2
118,0,144733,218017,365503,333014,464542,253858,48490,-354096,1636549353.1913764,1636549353.236433,2
119,0,144690,217984,365434,332949,464474,253782,48428,-354189,1636549353.191381,1636549353.236433,2
120,0,144686,218017,365419,332916,464431,253726,48323,-354242,1636549353.1972735,1636549353.236433,2
121,0,144620,217864,365267,332775,464296,253607,48196,-354301,1636549353.197276,1636549353.236433,2
122,0,144649,217956,365395,332935,464453,253759,48283,-354237,1636549353.2015069,1636549353.236433,2
123,0,144649,218153,365581,333034,464517,253798,48304,-354287,1636549353.2015092,1636549353.236433,2
124,0,144646,218060,365465,332917,464429,253756,48333,-354267,1636549353.2016883,1636549353.236433,2
125,0,144673,218024,365444,332913,464454,253773,48343,-354252,1636549353.2016895,1636549353.236433,2
126,0,144634,217931,365362,332870,464416,253762,48422,-354241,1636549353.2126079,1636549353.236433,2
127,0,144696,218034,365454,332970,464490,253844,48466,-354160,1636549353.2126126,1636549353.236433,2
128,0,144758,218174,365571,333065,464559,253884,48411,-354160,1636549353.2126508,1636549353.236433,2
129,0,144716,218103,365525,333023,464538,253824,48321,-354233,1636549353.2126524,1636549353.236433,2
130,0,144682,218073,365526,333036,464536,253808,48269,-354299,1636549353.2140298,1636549353.236433,2
131,0,144554,217948,365416,332910,464426,253723,48225,-354576,1636549353.2140317,1636549353.236433,2
132,0,144616,217981,365443,332916,464428,253753,48294,-354622,1636549353.2178123,1636549353.236433,2
133,0,144716,218066,365499,332968,464498,253831,48508,-354252,1636549353.2178147,1636549353.236433,2
134,0,144712,217974,365419,332893,464425,253745,48503,-353911,1636549353.236716,1636549353.236433,2
135,0,144661,217781,365266,332786,464349,253660,48388,-353935,1636549353.2367375,1636549353.236433,2
136,0,144559,217801,365256,332757,464313,253592,48249,-354222,1636549353.2367492,1636549353.236433,2
137,0,144691,218111,365538,332975,464493,253711,48286,-354229,1636549353.2367496,1636549353.236433,2
138,0,144767,218121,365596,333058,464586,253845,48430,-354119,1636549353.2367525,1636549353.236433,2
139,0,144651,217991,365454,332915,464448,253747,48325,-354228,1636549353.2367527,1636549353.236433,2
140,0,144625,217975,365437,332904,464438,253733,48339,-354223,1636549353.2367551,1636549353.236433,2
141,0,144688,218039,365494,332970,464514,253801,48380,-354163,1636549353.2367556,1636549353.236433,2
142,0,144628,217972,365418,332872,464416,253703,48291,-354309,1636549353.2417607,1636549353.236433,2
143,0,144576,217936,365373,332833,464408,253714,48311,-354472,1636549353.2417653,1636549353.236433,2
144,0,144579,217951,365426,332871,464446,253751,48353,-354381,1636549353.2417855,1636549353.236433,2
145,0,144692,218051,365482,332933,464477,253748,48297,-354178,1636549353.241786,1636549353.236433,2
146,0,144648,217953,365346,332830,464373,253641,48242,-354084,1636549353.2457821,1636549353.236433,2
147,0,144721,218042,365510,333006,464533,253799,48324,-354127,1636549353.2457864,1636549353.236433,2
148,0,144693,217933,365506,333022,464558,253866,48421,-354241,1636549353.2498765,1636549353.321121,3
149,0,144494,217635,365239,332768,464330,253689,48329,-354399,1636549353.249879,1636549353.321121,3
150,0,144540,217851,365280,332772,464311,253657,48308,-354374,1636549353.2537427,1636549353.321121,3
151,0,144556,218061,365461,332914,464416,253736,48328,-354306,1636549353.253746,1636549353.321121,3
152,0,144641,217994,365445,332912,464429,253735,48378,-354158,1636549353.2579455,1636549353.321121,3
153,0,144661,217948,365351,332868,464408,253736,48384,-354149,1636549353.2579572,1636549353.321121,3
154,0,144584,217954,365411,332896,464408,253719,48339,-354229,1636549353.2616563,1636549353.321121,3
155,0,144529,217857,365325,332807,464331,253643,48164,-354357,1636549353.2616584,1636549353.321121,3
156,0,144563,217881,365393,332890,464418,253703,48132,-354371,1636549353.2657619,1636549353.321121,3
157,0,144598,217864,365395,332876,464414,253702,48190,-354337,1636549353.2657647,1636549353.321121,3
158,0,144616,217893,365410,332868,464427,253728,48381,-354210,1636549353.269932,1636549353.321121,3
159,0,144556,217892,365351,332801,464327,253643,48341,-354256,1636549353.269934,1636549353.321121,3
160,0,144642,218056,365526,332982,464496,253795,48411,-354190,1636549353.2749834,1636549353.321121,3
161,0,144608,217978,365505,332964,464475,253764,48354,-354216,1636549353.274986,1636549353.321121,3
162,0,144576,217883,365408,332897,464420,253728,48313,-354247,1636549353.2779396,1636549353.321121,3
163,0,144611,217889,365403,332948,464465,253763,48284,-354300,1636549353.2779417,1636549353.321121,3
164,0,144574,218023,365521,332984,464457,253768,48314,-354374,1636549353.2822375,1636549353.321121,3
165,0,144565,217946,365446,332901,464406,253776,48434,-354236,1636549353.2822402,1636549353.321121,3
166,0,144589,217894,365393,332839,464373,253722,48409,-354152,1636549353.286037,1636549353.321121,3
167,0,144582,217866,365374,332855,464409,253732,48368,-354264,1636549353.2860389,1636549353.321121,3
168,0,144547,217888,365411,332926,464468,253784,48356,-354532,1636549353,1636549353.321121,3
169,0,144494,217959,365469,332931,464452,253749,48296,-354526,1636549353.2903388,1636549353.321121,3
170,0,144529,217909,365423,332856,464394,253712,48313,-354167,1636549353.2940245,1636549353.321121,3
171,0,144629,217868,365400,332862,464403,253715,48333,-353905,1636549353.294031,1636549353.321121,3
172,0,144545,217767,365311,332790,464321,253638,48244,-354162,1636549353.2977896,1636549353.321121,3
173,0,144499,217635,365207,332701,464276,253596,48228,-354260,1636549353.2977927,1636549353.321121,3
174,0,144560,217631,365200,332724,464306,253628,48268,-354207,1636549353.315545,1636549353.321121,3
175,0,144612,217960,365463,332935,464462,253743,48308,-354213,1636549353.315549,1636549353.321121,3
176,0,144590,217983,365480,332939,464463,253734,48291,-354259,1636549353.3155618,1636549353.321121,3
177,0,144626,217924,365438,332909,464436,253737,48318,-354226,1636549353.3155622,1636549353.321121,3
178,0,144697,217974,365505,332989,464529,253823,48378,-354136,1636549353.315565,1636549353.321121,3
179,0,144615,217893,365428,332914,464453,253739,48248,-354244,1636549353.3155656,1636549353.321121,3
180,0,144600,217914,365433,332927,464456,253726,48179,-354321,1636549353.315568,1636549353.321121,3
181,0,144596,217925,365432,332896,464429,253683,48183,-354315,1636549353.3155684,1636549353.321121,3
182,0,144523,217726,365331,332783,464341,253623,48261,-354306,1636549353.319118,1636549353.321121,3
183,0,144504,217617,365257,332738,464299,253624,48348,-354244,1636549353.3191204,1636549353.321121,3
184,0,144611,217939,365422,332902,464450,253751,48323,-354235,1636549353.3216388,1636549353.321121,3
185,0,144618,218048,365496,332948,464499,253800,48309,-354263,1636549353.3216405,1636549353.321121,3
186,0,144513,217844,365348,332830,464388,253707,48261,-354313,1636549353.326613,1636549353.321121,3
187,0,144532,217885,365401,332863,464389,253689,48269,-354273,1636549353.326622,1636549353.321121,3
188,0,144658,217950,365414,332879,464394,253714,48326,-354157,1636549353.3297195,1636549353.321121,3
189,0,144543,217883,365338,332819,464314,253607,48125,-354371,1636549353.3297234,1636549353.321121,3
190,0,144658,217950,365414,332879,464394,253714,48326,-354157,1636549353.3297195,1636549353.405862,4
191,0,144543,217883,365338,332819,464314,253607,48125,-354371,1636549353.3297234,1636549353.405862,4
192,0,144509,217949,365453,332932,464388,253624,48046,-354596,1636549353.3335953,1636549353.405862,4
193,0,144575,218005,365493,332957,464440,253678,48078,-354538,1636549353.333598,1636549353.405862,4
194,0,144671,218020,365500,332959,464469,253780,48281,-354229,1636549353.337618,1636549353.405862,4
195,0,144600,217854,365341,332841,464383,253806,48506,-353962,1636549353,1636549353.405862,4
196,0,144504,217783,365310,332784,464327,253743,48415,-354108,1636549353,1636549353.405862,4
197,0,144558,217816,365341,332809,464363,253738,48388,-354161,1636549353.342212,1636549353.405862,4
198,0,144583,217808,365362,332840,464375,253734,48313,-354196,1636549353.345965,1636549353.405862,4
199,0,144573,217831,365361,332856,464366,253704,48205,-354264,1636549353.3459668,1636549353.405862,4
200,0,144693,217984,365493,332973,464466,253796,48308,-354172,1636549353.3496406,1636549353.405862,4
201,0,144609,217826,365352,332797,464307,253659,48271,-354257,1636549353.349643,1636549353.405862,4
202,0,144530,217773,365311,332790,464304,253659,48313,-354267,1636549353.353577,1636549353.405862,4
203,0,144462,217732,365289,332804,464310,253669,48159,-354362,1636549353.3535793,1636549353.405862,4
204,0,144519,217928,365464,332909,464393,253720,48131,-354447,1636549353.3585117,1636549353.405862,4
205,0,144485,217819,365341,332821,464364,253741,48282,-354386,1636549353.3585145,1636549353.405862,4
206,0,144450,217831,365353,332834,464373,253736,48333,-354439,1636549353.3619092,1636549353.405862,4
207,0,144509,217949,365433,332904,464419,253801,48454,-354521,1636549353.3619113,1636549353.405862,4
208,0,144419,217783,365297,332801,464316,253690,48299,-354490,1636549353.3657725,1636549353.405862,4
209,0,144456,217645,365171,332657,464201,253573,48219,-354180,1636549353.3657758,1636549353.405862,4
210,0,144579,217743,365278,332790,464329,253670,48345,-353864,1636549353.376688,1636549353.405862,4
211,0,144611,218038,365515,332958,464456,253767,48330,-354117,1636549353.3766904,1636549353.405862,4
212,0,144601,217985,365474,332915,464408,253733,48293,-354195,1636549353.3767064,1636549353.405862,4
213,0,144496,217794,365294,332739,464246,253544,48178,-354247,1636549353.3767068,1636549353.405862,4
214,0,144471,217808,365318,332755,464279,253581,48211,-354258,1636549353.3778603,1636549353.405862,4
215,0,144467,217821,365337,332779,464306,253621,48181,-354305,1636549353.3778615,1636549353.405862,4
216,0,144547,217863,365398,332843,464354,253671,48205,-354255,1636549353.3821895,1636549353.405862,4
217,0,144521,217817,365357,332789,464324,253633,48199,-354297,1636549353.3821917,1636549353.405862,4
218,0,144523,217814,365359,332788,464343,253641,48207,-354380,1636549353.3860545,1636549353.405862,4
219,0,144618,217909,365447,332893,464441,253726,48263,-354331,1636549353.3860567,1636549353.405862,4
220,0,144674,217930,365471,332937,464498,253803,48408,-354166,1636549353,1636549353.405862,4
221,0,144566,217817,365338,332782,464354,253663,48277,-354197,1636549353.3900924,1636549353.405862,4
222,0,144582,217799,365341,332799,464371,253678,48306,-354164,1636549353.3939495,1636549353.405862,4
223,0,144503,217703,365344,332808,464361,253678,48247,-354269,1636549353.3939664,1636549353.405862,4
224,0,144551,217636,365324,332794,464354,253688,48259,-354237,1636549353.3981345,1636549353.405862,4
225,0,144508,217763,365304,332751,464321,253627,48173,-354324,1636549353.398141,1636549353.405862,4
226,0,144563,217918,365411,332831,464384,253661,48166,-354321,1636549353.407895,1636549353.405862,4
227,0,144636,217889,365416,332838,464391,253689,48198,-354246,1636549353,1636549353.405862,4
228,0,144631,217905,365418,332833,464366,253668,48159,-354266,1636549353.4079278,1636549353.405862,4
229,0,144731,217981,365476,332882,464415,253744,48241,-354203,1636549353.4079287,1636549353.405862,4
230,0,144711,218004,365501,332940,464486,253820,48316,-354149,1636549353.4098165,1636549353.405862,4
231,0,144493,217796,365333,332755,464309,253658,48155,-354307,1636549353,1636549353.405862,4
232,0,144711,218004,365501,332940,464486,253820,48316,-354149,1636549353.4098165,1636549353.474703,5
233,0,144493,217796,365333,332755,464309,253658,48155,-354307,1636549353,1636549353.474703,5
234,0,144489,217716,365208,332652,464240,253590,48198,-354313,1636549353.4181416,1636549353.474703,5
235,0,144472,217744,365274,332705,464259,253603,48281,-354276,1636549353.4181445,1636549353.474703,5
236,0,144538,217826,365359,332796,464334,253650,48244,-354246,1636549353.4182513,1636549353.474703,5
237,0,144597,217973,365543,332989,464538,253845,48359,-354175,1636549353.4182525,1636549353.474703,5
238,0,144618,217955,365499,332926,464491,253792,48293,-354253,1636549353.4217484,1636549353.474703,5
239,0,144528,217893,365418,332846,464388,253686,48161,-354556,1636549353.4217525,1636549353.474703,5
240,0,144496,217838,365365,332803,464359,253639,48103,-354478,1636549353.425964,1636549353.474703,5
241,0,144569,217748,365281,332733,464314,253606,48123,-354171,1636549353.4259722,1636549353.474703,5
242,0,144507,217586,365132,332616,464225,253550,48221,-354022,1636549353.4298472,1636549353.474703,5
243,0,144511,217811,365336,332768,464319,253654,48256,-354186,1636549353.4298503,1636549353.474703,5
244,0,144662,217971,365490,332912,464461,253793,48405,-354080,1636549353.433772,1636549353.474703,5
245,0,144598,217840,365406,332848,464416,253761,48384,-354094,1636549353.4337757,1636549353.474703,5
246,0,144564,217685,365284,332721,464301,253673,48300,-354134,1636549353.4375992,1636549353.474703,5
247,0,144581,217754,365342,332796,464379,253709,48283,-354169,1636549353.4376032,1636549353.474703,5
248,0,144639,218023,365520,332934,464454,253756,48264,-354284,1636549353.4423566,1636549353.474703,5
249,0,144532,217888,365436,332874,464412,253724,48186,-354611,1636549353.4423597,1636549353.474703,5
250,0,144580,217933,365503,332963,464503,253813,48242,-354504,1636549353.4456203,1636549353.474703,5
251,0,144587,217876,365426,332858,464381,253709,48195,-354252,1636549353.4456234,1636549353.474703,5
252,0,144723,217901,365446,332856,464394,253730,48304,-353886,1636549353.4512272,1636549353.474703,5
253,0,144634,217874,365408,332834,464393,253712,48256,-354112,1636549353.451235,1636549353.474703,5
254,0,144591,217876,365404,332823,464390,253710,48249,-354224,1636549353.4534495,1636549353.474703,5
255,0,144603,217885,365408,332807,464379,253699,48223,-354192,1636549353.4534516,1636549353.474703,5
256,0,144656,217906,365420,332806,464389,253710,48160,-354161,1636549353.458309,1636549353.474703,5
257,0,144643,217917,365438,332825,464398,253696,48061,-354278,1636549353.458311,1636549353.474703,5
258,0,144569,217845,365370,332740,464321,253623,48001,-354396,1636549353.4620447,1636549353.474703,5
259,0,144553,217819,365386,332786,464366,253711,48192,-354354,1636549353.4620469,1636549353.474703,5
260,0,144533,217783,365380,332763,464338,253698,48313,-354281,1636549353.465633,1636549353.474703,5
261,0,144504,217675,365380,332779,464336,253638,48258,-354282,1636549353.4656363,1636549353.474703,5
262,0,144546,217711,365347,332777,464325,253590,48151,-354318,1636549353.4694726,1636549353.474703,5
263,0,144580,217999,365509,332907,464417,253659,48098,-354382,1636549353.4694748,1636549353.474703,5
264,0,144565,217883,365478,332877,464421,253712,48218,-354346,1636549353.475548,1636549353.474703,5
265,0,144538,217783,365369,332748,464336,253734,48335,-354286,1636549353.4755583,1636549353.474703,5
266,0,144543,217839,365347,332705,464295,253723,48373,-354252,1636549353.4774337,1636549353.474703,5
267,0,144556,217790,365350,332764,464358,253742,48314,-354299,1636549353.4774349,1636549353.474703,5
268,0,144523,217626,365234,332675,464311,253709,48216,-354363,1636549353.481774,1636549353.474703,5
269,0,144429,217532,365124,332567,464171,253577,48083,-354416,1636549353.4817755,1636549353.474703,5
270,0,144549,217874,365364,332711,464227,253571,48109,-354311,1636549353.4857087,1636549353.474703,5
271,0,144517,217986,365509,332888,464417,253783,48309,-354261,1636549353.4857109,1636549353.474703,5
272,0,144479,217843,365373,332776,464333,253714,48240,-354312,1636549353.490364,1636549353.474703,5
273,0,144368,217636,365213,332638,464218,253586,48109,-354453,1636549353.4903677,1636549353.474703,5
274,0,144603,218032,365611,333004,464548,253887,48226,-354346,1636549353.5098321,1636549353.552881,6
275,0,144493,217863,365433,332812,464370,253704,48058,-354438,1636549353.5098546,1636549353.552881,6
276,0,144431,217801,365383,332784,464343,253688,48110,-354659,1636549353.509855,1636549353.552881,6
277,0,144537,217946,365548,332954,464511,253765,48066,-354437,1636549353.509868,1636549353.552881,6
278,0,144519,217819,365408,332778,464324,253556,47851,-354015,1636549353.5098684,1636549353.552881,6
279,0,144563,217777,365374,332756,464307,253573,48076,-353796,1636549353.513944,1636549353.552881,6
280,0,144414,217734,365329,332719,464283,253646,48368,-354059,1636549353.5139468,1636549353.552881,6
281,0,144411,217724,365298,332691,464276,253663,48444,-354058,1636549353.517547,1636549353.552881,6
282,0,144424,217734,365318,332719,464278,253631,48279,-354150,1636549353.5175498,1636549353.552881,6
283,0,144543,217843,365443,332840,464406,253740,48314,-354110,1636549353.523382,1636549353.552881,6
284,0,144554,217873,365449,332854,464423,253727,48289,-354124,1636549353.5233843,1636549353.552881,6
285,0,144493,217824,365421,332831,464396,253693,48247,-354191,1636549353.525668,1636549353.552881,6
286,0,144489,217801,365404,332794,464356,253660,48219,-354224,1636549353.5256703,1636549353.552881,6
287,0,144486,217814,365413,332814,464369,253675,48227,-354199,1636549353.5299284,1636549353.552881,6
288,0,144442,217771,365368,332779,464324,253626,48188,-354239,1636549353.5299315,1636549353.552881,6
289,0,144458,217771,365377,332783,464321,253612,48129,-354284,1636549353.5343664,1636549353.552881,6
290,0,144468,217769,365374,332773,464323,253602,48102,-354287,1636549353.5343688,1636549353.552881,6
291,0,144525,217816,365451,332882,464428,253683,48146,-354223,1636549353.5377996,1636549353.552881,6
292,0,144466,217675,365423,332849,464383,253625,48027,-354308,1636549353.537802,1636549353.552881,6
293,0,144516,217685,365379,332831,464382,253631,48038,-354312,1636549353.5442994,1636549353.552881,6
294,0,144523,217928,365452,332886,464434,253710,48136,-354351,1636549353.5443032,1636549353.552881,6
295,0,144464,217818,365351,332790,464378,253683,48219,-354333,1636549353.5455437,1636549353.552881,6
296,0,144462,217716,365295,332729,464309,253637,48234,-354255,1636549353.5455449,1636549353.552881,6
297,0,144538,217822,365439,332854,464396,253714,48251,-354136,1636549353.5508573,1636549353.552881,6
298,0,144418,217675,365296,332709,464268,253571,48106,-354275,1636549353.5508597,1636549353.552881,6
299,0,144453,217817,365369,332754,464304,253593,48108,-354315,1636549353.5533748,1636549353.552881,6
300,0,144299,217752,365329,332723,464281,253544,48061,-354376,1636549353.553377,1636549353.552881,6
301,0,144338,217710,365286,332702,464275,253541,48031,-354354,1636549353.5578716,1636549353.552881,6
302,0,144471,217837,365426,332840,464418,253676,48107,-354253,1636549353.5578768,1636549353.552881,6
303,0,144498,217856,365462,332878,464449,253709,48082,-354276,1636549353.5613089,1636549353.552881,6
304,0,144371,217721,365301,332734,464303,253586,47971,-354416,1636549353.5613112,1636549353.552881,6
305,0,144408,217766,365341,332763,464336,253628,48009,-354384,1636549353.5656526,1636549353.621897,7
306,0,144479,217806,365421,332807,464383,253648,48101,-354322,1636549353.565656,1636549353.621897,7
307,0,144442,217707,365344,332728,464341,253633,48235,-354254,1636549353.5695388,1636549353.621897,7
308,0,144353,217531,365196,332621,464260,253575,48166,-354286,1636549353.5695412,1636549353.621897,7
309,0,144368,217501,365158,332609,464252,253594,48211,-354242,1636549353.5752342,1636549353.621897,7
310,0,144493,217814,365395,332771,464345,253653,48176,-354254,1636549353.5752432,1636549353.621897,7
311,0,144558,217866,365450,332818,464394,253678,48124,-354274,1636549353.5773897,1636549353.621897,7
312,0,144472,217684,365316,332775,464373,253637,48091,-354339,1636549353.5773928,1636549353.621897,7
313,0,144443,217745,365311,332766,464383,253638,48065,-354357,1636549353.5822659,1636549353.621897,7
314,0,144395,217789,365385,332803,464383,253634,48044,-354388,1636549353.582268,1636549353.621897,7
315,0,144509,217852,365408,332793,464368,253658,48146,-354232,1636549353.5858612,1636549353.621897,7
316,0,144576,217874,365422,332818,464400,253686,48168,-354139,1636549353.585863,1636549353.621897,7
317,0,144571,217913,365463,332865,464463,253703,48056,-354344,1636549353.5900552,1636549353.621897,7
318,0,144419,217829,365385,332762,464359,253609,47959,-354699,1636549353.590058,1636549353.621897,7
319,0,144458,217877,365426,332798,464375,253680,48126,-354497,1636549353.5934389,1636549353.621897,7
320,0,144449,217801,365348,332731,464298,253619,48120,-354216,1636549353.5934415,1636549353.621897,7
321,0,144461,217682,365258,332656,464243,253596,48156,-354002,1636549353.597472,1636549353.621897,7
322,0,144491,217802,365372,332785,464335,253681,48185,-354201,1636549353.5974753,1636549353.621897,7
323,0,144478,217843,365394,332806,464350,253676,48116,-354439,1636549353.601464,1636549353.621897,7
324,0,144390,217726,365269,332668,464236,253584,48029,-354488,1636549353.6014664,1636549353.621897,7
325,0,144441,217701,365302,332706,464266,253618,48069,-354269,1636549353.610864,1636549353.621897,7
326,0,144535,217634,365318,332716,464277,253614,48144,-354055,1636549353.6108727,1636549353.621897,7
327,0,144514,217791,365372,332773,464338,253667,48173,-354177,1636549353.6109157,1636549353.621897,7
328,0,144377,217956,365417,332786,464313,253625,48023,-354335,1636549353.610916,1636549353.621897,7
329,0,144414,217834,365344,332728,464266,253577,47961,-354272,1636549353.6136029,1636549353.621897,7
330,0,144456,217780,365306,332706,464268,253580,48002,-354180,1636549353.6136067,1636549353.621897,7
331,0,144520,217900,365419,332818,464384,253702,48179,-354156,1636549353.623546,1636549353.621897,7
332,0,144569,217994,365518,332893,464440,253769,48298,-354241,1636549353.6235492,1636549353.621897,7
333,0,144600,218037,365579,332959,464504,253834,48291,-354340,1636549353.623565,1636549353.621897,7
334,0,144471,217931,365463,332852,464395,253728,48171,-354382,1636549353.6235654,1636549353.621897,7
335,0,144489,217841,365336,332747,464283,253593,48068,-354161,1636549353.6255436,1636549353.621897,7
336,0,144533,217774,365274,332707,464236,253538,48017,-354076,1636549353.6255472,1636549353.621897,7
337,0,144601,217868,365371,332821,464336,253639,48074,-354161,1636549353.630584,1636549353.621897,7
338,0,144518,217781,365256,332674,464207,253548,48094,-354228,1636549353.6305873,1636549353.621897,7
339,0,144600,218037,365579,332959,464504,253834,48291,-354340,1636549353.623565,1636549353.675052,8
340,0,144471,217931,365463,332852,464395,253728,48171,-354382,1636549353.6235654,1636549353.675052,8
341,0,144489,217841,365336,332747,464283,253593,48068,-354161,1636549353.6255436,1636549353.675052,8
342,0,144533,217774,365274,332707,464236,253538,48017,-354076,1636549353.6255472,1636549353.675052,8
343,0,144601,217868,365371,332821,464336,253639,48074,-354161,1636549353.630584,1636549353.675052,8
344,0,144518,217781,365256,332674,464207,253548,48094,-354228,1636549353.6305873,1636549353.675052,8
345,0,144390,217758,365255,332689,464229,253613,48168,-354284,1636549353.6334438,1636549353.675052,8
346,0,144521,217866,365368,332809,464354,253715,48180,-354247,1636549353.6334496,1636549353.675052,8
347,0,144585,217878,365378,332804,464348,253694,48160,-354219,1636549353.6373608,1636549353.675052,8
348,0,144542,217824,365303,332721,464275,253620,48104,-354229,1636549353.6373637,1636549353.675052,8
349,0,144551,217813,365295,332704,464259,253599,48103,-354199,1636549353.641677,1636549353.675052,8
350,0,144543,217813,365291,332711,464256,253609,48124,-354181,1636549353.6416793,1636549353.675052,8
351,0,144555,217819,365308,332731,464273,253617,48099,-354230,1636549353.645684,1636549353.675052,8
352,0,144566,217833,365341,332748,464285,253623,48118,-354226,1636549353.645686,1636549353.675052,8
353,0,144678,217921,365436,332851,464398,253724,48221,-354132,1636549353.6494236,1636549353.675052,8
354,0,144621,217884,365409,332808,464329,253651,48158,-354192,1636549353.6494265,1636549353.675052,8
355,0,144598,217757,365308,332728,464283,253615,48136,-354191,1636549353.653942,1636549353.675052,8
356,0,144566,217622,365198,332655,464230,253614,48132,-354177,1636549353.6539469,1636549353.675052,8
357,0,144528,217750,365288,332728,464268,253624,48066,-354295,1636549353.6574008,1636549353.675052,8
358,0,144523,217816,365325,332755,464296,253626,48036,-354329,1636549353.6574032,1636549353.675052,8
359,0,144543,217908,365396,332781,464319,253631,48051,-354284,1636549353.6616423,1636549353.675052,8
360,0,144536,217808,365309,332701,464258,253596,48060,-354256,1636549353.6616447,1636549353.675052,8
361,0,144616,217847,365343,332698,464269,253600,48113,-354182,1636549353.6654513,1636549353.675052,8
362,0,144571,217855,365389,332768,464345,253653,48098,-354212,1636549353.6654537,1636549353.675052,8
363,0,144593,217923,365469,332864,464422,253722,48074,-354239,1636549353.6696208,1636549353.675052,8
364,0,144594,217974,365440,332808,464359,253669,48033,-354431,1636549353.6696248,1636549353.675052,8
365,0,144463,217895,365421,332776,464308,253633,48065,-354629,1636549353.6741588,1636549353.675052,8
366,0,144457,217858,365376,332768,464304,253615,48088,-354427,1636549353.674167,1636549353.675052,8
367,0,144544,217874,365386,332773,464306,253586,48036,-354100,1636549353.677255,1636549353.675052,8
368,0,144601,217861,365399,332775,464311,253614,48136,-353935,1636549353.6772575,1636549353.675052,8
369,0,144599,217871,365395,332786,464336,253683,48205,-354074,1636549353.681866,1636549353.675052,8
370,0,144519,217787,365304,332685,464254,253609,48137,-354205,1636549353.6818676,1636549353.675052,8
371,0,144566,217833,365369,332736,464316,253646,48197,-354166,1636549353.685367,1636549353.675052,8
372,0,144557,217832,365349,332729,464293,253639,48163,-354184,1636549353.6853695,1636549353.675052,8
373,0,144616,217818,365383,332768,464315,253677,48162,-354142,1636549353.713796,1636549353.770721,9
374,0,144586,217846,365393,332767,464303,253654,48099,-354240,1636549353.7137964,1636549353.770721,9
375,0,144650,217962,365500,332859,464379,253723,48118,-354379,1636549353.7137997,1636549353.770721,9
376,0,144608,217914,365479,332845,464375,253713,48056,-354399,1636549353.7137997,1636549353.770721,9
377,0,144519,217840,365396,332757,464314,253616,47959,-354311,1636549353.7138023,1636549353.770721,9
378,0,144548,217794,365339,332681,464228,253556,48029,-354066,1636549353.7138028,1636549353.770721,9
379,0,144550,217779,365316,332661,464219,253588,48169,-354089,1636549353.7138052,1636549353.770721,9
380,0,144626,217889,365431,332790,464357,253714,48248,-354087,1636549353.7138057,1636549353.770721,9
381,0,144650,217922,365464,332821,464376,253706,48206,-354107,1636549353.7152376,1636549353.770721,9
382,0,144595,217851,365378,332748,464303,253593,48044,-354221,1636549354,1636549353.770721,9
383,0,144659,217899,365419,332773,464314,253608,48004,-354158,1636549353.7152755,1636549353.770721,9
384,0,144562,217930,365443,332818,464356,253668,48039,-354216,1636549353.7152765,1636549353.770721,9
385,0,144613,217969,365544,332914,464456,253787,48177,-354166,1636549353.7226715,1636549353.770721,9
386,0,144710,217909,365588,332975,464521,253875,48413,-353995,1636549353.722674,1636549353.770721,9
387,0,144604,217793,365435,332843,464423,253807,48479,-353965,1636549353.7226868,1636549353.770721,9
388,0,144396,217839,365253,332602,464162,253517,48118,-354259,1636549353.7226875,1636549353.770721,9
389,0,144480,217925,365347,332679,464216,253561,48116,-354220,1636549353.7296743,1636549353.770721,9
390,0,144534,217924,365382,332734,464281,253616,48123,-354197,1636549353.7296767,1636549353.770721,9
391,0,144629,218015,365500,332861,464411,253701,48134,-354133,1636549353.7312033,1636549353.770721,9
392,0,144465,217749,365275,332649,464228,253504,47971,-354319,1636549353.731206,1636549353.770721,9
393,0,144428,217636,365205,332601,464187,253477,47993,-354346,1636549353.733474,1636549353.770721,9
394,0,144568,217888,365433,332778,464329,253581,48034,-354307,1636549353.7334793,1636549353.770721,9
395,0,144659,218176,365645,332946,464466,253735,48214,-354249,1636549353.737615,1636549353.770721,9
396,0,144571,217971,365464,332795,464359,253703,48206,-354253,1636549353.7376196,1636549353.770721,9
397,0,144578,217821,365347,332702,464309,253688,48204,-354155,1636549353.7414029,1636549353.770721,9
398,0,144549,217752,365227,332599,464219,253599,48168,-354109,1636549353.741407,1636549353.770721,9
399,0,144575,217956,365386,332674,464228,253591,48129,-354149,1636549353.7457068,1636549353.770721,9
400,0,144583,217913,365363,332662,464251,253611,48106,-354312,1636549353.7457092,1636549353.770721,9
401,0,144611,217928,365429,332767,464361,253736,48199,-354421,1636549353.7492793,1636549353.770721,9
402,0,144628,218009,365499,332859,464418,253758,48152,-354318,1636549353.7492816,1636549353.770721,9
403,0,144608,217922,365359,332708,464264,253601,48059,-354067,1636549353.7537243,1636549353.770721,9
404,0,144598,217838,365358,332699,464251,253578,48116,-353905,1636549353.753728,1636549353.770721,9
405,0,144543,217846,365299,332643,464213,253529,48039,-354166,1636549353.7576025,1636549353.770721,9
406,0,144552,217906,365348,332697,464243,253559,48042,-354235,1636549353.757612,1636549353.770721,9
407,0,144646,217959,365440,332798,464329,253663,48116,-354160,1636549353.7612753,1636549353.770721,9
408,0,144591,217913,365407,332768,464288,253617,48058,-354222,1636549353.7612777,1636549353.770721,9
409,0,144664,217987,365509,332856,464364,253688,48073,-354191,1636549353.7653325,1636549353.770721,9
410,0,144703,218022,365548,332891,464420,253736,48074,-354206,1636549353.7653363,1636549353.770721,9
411,0,144678,217970,365485,332808,464357,253694,48122,-354192,1636549353.769277,1636549353.770721,9
412,0,144579,217873,365384,332719,464248,253603,48183,-354208,1636549353.7692814,1636549353.770721,9
413,0,144558,217789,365336,332678,464216,253578,48223,-354170,1636549353.774126,1636549353.770721,9
414,0,144561,217719,365400,332759,464304,253639,48146,-354182,1636549353.7741332,1636549353.770721,9
415,0,144561,217892,365364,332680,464214,253611,48186,-354209,1636549353.7865005,1636549353.831741,10
416,0,144516,217880,365370,332681,464227,253587,48074,-354321,1636549353.786503,1636549353.831741,10
417,0,144620,217966,365450,332752,464290,253625,48085,-354234,1636549353.7893074,1636549353.831741,10
418,0,144503,217894,365392,332693,464211,253569,48040,-354318,1636549353.7893095,1636549353.831741,10
419,0,144569,218064,365604,332920,464449,253797,48214,-354335,1636549353.7933273,1636549353.831741,10
420,0,144462,217913,365471,332800,464338,253706,48188,-354317,1636549354,1636549353.831741,10
421,0,144403,217743,365317,332638,464179,253554,48077,-354154,1636549353.7985272,1636549353.831741,10
422,0,144377,217593,365184,332519,464076,253463,47978,-354079,1636549353.7985308,1636549353.831741,10
423,0,144474,217765,365348,332667,464204,253524,47953,-354193,1636549353.8012705,1636549353.831741,10
424,0,144518,218064,365594,332852,464338,253615,47953,-354281,1636549353.8012748,1636549353.831741,10
425,0,144538,218001,365560,332870,464373,253708,48063,-354229,1636549353.805652,1636549353.831741,10
426,0,144458,217855,365386,332699,464242,253666,48150,-354212,1636549353.8056543,1636549353.831741,10
427,0,144416,217858,365414,332713,464264,253701,48200,-354169,1636549353.8092413,1636549353.831741,10
428,0,144375,217821,365372,332661,464199,253594,48080,-354254,1636549353.8092434,1636549353.831741,10
429,0,144363,217798,365341,332638,464175,253551,48031,-354294,1636549353.815591,1636549353.831741,10
430,0,144441,217904,365473,332770,464321,253699,48107,-354336,1636549353.8155935,1636549353.831741,10
431,0,144429,217908,365471,332784,464363,253750,48113,-354513,1636549353.8218555,1636549353.831741,10
432,0,144411,217854,365413,332736,464317,253704,48071,-354481,1636549353.8218613,1636549353.831741,10
433,0,144452,217929,365487,332774,464308,253658,47981,-354359,1636549353.8218813,1636549353.831741,10
434,0,144419,217791,365362,332671,464231,253603,47944,-354234,1636549353.8218815,1636549353.831741,10
435,0,144433,217829,365398,332738,464301,253658,47934,-354291,1636549353.8250716,1636549353.831741,10
436,0,144522,217872,365456,332769,464298,253646,48016,-353990,1636549353.8250737,1636549353.831741,10
437,0,144533,217816,365345,332676,464219,253612,48227,-353859,1636549353.8297527,1636549353.831741,10
438,0,144423,217831,365331,332658,464193,253570,48116,-354111,1636549353.829754,1636549353.831741,10
439,0,144355,217774,365329,332655,464176,253528,47993,-354255,1636549353.833295,1636549353.831741,10
440,0,144381,217789,365333,332654,464203,253573,48064,-354212,1636549353.8332987,1636549353.831741,10
441,0,144379,217783,365319,332635,464193,253594,48133,-354193,1636549353.838252,1636549353.831741,10
442,0,144436,217840,365364,332677,464238,253632,48127,-354172,1636549353.8382547,1636549353.831741,10
443,0,144436,217840,365364,332677,464238,253632,48127,-354172,1636549353.8382547,1636549353.906833,11
444,0,144450,217873,365391,332707,464251,253629,48034,-354246,1636549354,1636549353.906833,11
445,0,144481,217895,365431,332751,464276,253644,48033,-354243,1636549353.8497741,1636549353.906833,11
446,0,144433,217848,365389,332722,464231,253599,47981,-354279,1636549353.8498256,1636549353.906833,11
447,0,144347,217769,365312,332643,464148,253515,47931,-354383,1636549353.849826,1636549353.906833,11
448,0,144474,217869,365414,332734,464254,253596,48023,-354289,1636549353.8498292,1636549353.906833,11
449,0,144354,217753,365279,332629,464128,253472,47944,-354387,1636549354,1636549353.906833,11
450,0,144358,217766,365311,332669,464156,253483,47936,-354377,1636549353.853372,1636549353.906833,11
451,0,144449,217850,365389,332748,464253,253576,47919,-354359,1636549353.8533747,1636549353.906833,11
452,0,144399,217793,365336,332704,464225,253589,47961,-354389,1636549353.857681,1636549353.906833,11
453,0,144304,217676,365234,332608,464144,253556,48004,-354406,1636549353.8576837,1636549353.906833,11
454,0,144400,217734,365248,332614,464157,253568,48036,-354329,1636549353.8614912,1636549353.906833,11
455,0,144489,217813,365306,332667,464184,253574,48033,-354245,1636549353.861493,1636549353.906833,11
456,0,144391,217751,365271,332634,464161,253526,47931,-354324,1636549353.8678353,1636549353.906833,11
457,0,144333,217725,365379,332771,464293,253621,47899,-354361,1636549353.8678396,1636549353.906833,11
458,0,144513,217744,365416,332798,464307,253637,47919,-354250,1636549353.8693466,1636549353.906833,11
459,0,144398,217764,365281,332663,464187,253544,47869,-354430,1636549353.8693495,1636549353.906833,11
460,0,144343,217963,365387,332723,464248,253656,48043,-354459,1636549353.8749945,1636549353.906833,11
461,0,144348,217844,365346,332695,464212,253627,48048,-354401,1636549353.8750029,1636549353.906833,11
462,0,144306,217743,365294,332629,464149,253534,48063,-354316,1636549353.877468,1636549353.906833,11
463,0,144348,217754,365321,332644,464164,253532,48037,-354240,1636549354,1636549353.906833,11
464,0,144441,217833,365394,332719,464219,253600,48083,-354229,1636549353.8821087,1636549353.906833,11
465,0,144417,217832,365400,332712,464218,253591,48099,-354262,1636549353.8821108,1636549353.906833,11
466,0,144326,217718,365303,332624,464148,253517,47996,-354347,1636549353.885512,1636549353.906833,11
467,0,144374,217662,365306,332639,464198,253575,48025,-354300,1636549353.8855143,1636549353.906833,11
468,0,144391,217601,365235,332600,464167,253589,48074,-354224,1636549353.8908565,1636549353.906833,11
469,0,144466,217835,365403,332723,464245,253634,48060,-354252,1636549353.890859,1636549353.906833,11
470,0,144519,217908,365486,332781,464300,253674,48044,-354282,1636549353.8932636,1636549353.906833,11
471,0,144426,217639,365268,332630,464203,253587,48003,-354304,1636549353.893269,1636549353.906833,11
472,0,144426,217711,365302,332642,464182,253554,47954,-354340,1636549353.902185,1636549353.906833,11
473,0,144459,217919,365447,332729,464229,253581,47916,-354382,1636549353.902187,1636549353.906833,11
474,0,144474,217950,365488,332788,464279,253606,47930,-354377,1636549353.9022007,1636549353.906833,11
475,0,144417,217861,365423,332737,464245,253603,47979,-354490,1636549353.9022012,1636549353.906833,11
476,0,144349,217783,365346,332680,464191,253584,47966,-354618,1636549353.9050167,1636549353.906833,11
477,0,144447,217895,365426,332779,464298,253660,47976,-354569,1636549353.9050176,1636549353.906833,11
478,0,144433,217852,365380,332710,464246,253586,47943,-354534,1636549353.9128177,1636549353.906833,11
479,0,144313,217743,365317,332648,464169,253503,47855,-354506,1636549353.9128208,1636549353.906833,11
480,0,144433,217852,365380,332710,464246,253586,47943,-354534,1636549353.9128177,1636549353.969259,12
481,0,144313,217743,365317,332648,464169,253503,47855,-354506,1636549353.9128208,1636549353.969259,12
482,0,144407,217818,365396,332729,464247,253594,47933,-354243,1636549353.915268,1636549353.969259,12
483,0,144433,217761,365300,332618,464149,253495,47944,-354083,1636549353.9152708,1636549353.969259,12
484,0,144344,217684,365221,332500,464027,253359,47848,-354267,1636549353.9243176,1636549353.969259,12
485,0,144311,217691,365276,332563,464095,253437,47892,-354324,1636549353.9243212,1636549353.969259,12
486,0,144370,217715,365253,332575,464139,253492,47924,-354330,1636549353.9243352,1636549353.969259,12
487,0,144478,217881,365377,332686,464233,253591,48024,-354231,1636549353.924337,1636549353.969259,12
488,0,144419,217847,365388,332668,464222,253547,47909,-354331,1636549353.925352,1636549353.969259,12
489,0,144403,217811,365351,332641,464198,253521,47835,-354425,1636549353.9253545,1636549353.969259,12
490,0,144499,217901,365451,332763,464302,253629,47974,-354351,1636549353.9301057,1636549353.969259,12
491,0,144371,217766,365303,332621,464175,253524,48003,-354436,1636549353.9301093,1636549353.969259,12
492,0,144388,217778,365336,332665,464221,253559,48074,-354369,1636549353.9343538,1636549353.969259,12
493,0,144458,217843,365405,332730,464270,253623,48028,-354326,1636549353.9343572,1636549353.969259,12
494,0,144410,217724,365273,332579,464135,253512,47906,-354386,1636549353.9373283,1636549353.969259,12
495,0,144521,217781,365320,332614,464161,253525,47885,-354369,1636549353.9373317,1636549353.969259,12
496,0,144474,217854,365401,332707,464233,253555,47894,-354428,1636549353.9410484,1636549353.969259,12
497,0,144331,217826,365434,332748,464271,253601,47928,-354429,1636549353.9410524,1636549353.969259,12
498,0,144411,217721,365384,332710,464260,253631,48032,-354323,1636549353.9451659,1636549353.969259,12
499,0,144376,217601,365318,332632,464176,253566,47979,-354367,1636549353.9451692,1636549353.969259,12
500,0,144477,217858,365386,332676,464213,253588,47937,-354367,1636549353.9489863,1636549353.969259,12
501,0,144435,217970,365420,332677,464188,253538,47795,-354505,1636549353.9489903,1636549353.969259,12
502,0,144416,217860,365373,332671,464199,253576,47901,-354457,1636549353.9534156,1636549353.969259,12
503,0,144301,217658,365199,332516,464088,253547,48031,-354397,1636549353.953419,1636549353.969259,12
504,0,144260,217523,365081,332404,464010,253480,47968,-354394,1636549353.969632,1636549353.969259,12
505,0,144309,217630,365164,332486,464051,253491,47907,-354422,1636549353.9696355,1636549353.969259,12
506,0,144476,217999,365471,332741,464255,253638,47984,-354366,1636549353.9696486,1636549353.969259,12
507,0,144458,217923,365429,332726,464235,253638,47994,-354364,1636549354,1636549353.969259,12
508,0,144433,217887,365412,332720,464226,253658,48019,-354317,1636549353.969654,1636549353.969259,12
509,0,144483,217908,365428,332759,464278,253706,48066,-354264,1636549353.9696555,1636549353.969259,12
510,0,144528,217961,365471,332822,464339,253733,48024,-354259,1636549353.9696593,1636549353.969259,12
511,0,144461,217920,365407,332733,464251,253621,47878,-354374,1636549353.9696608,1636549353.969259,12
512,0,144366,217822,365306,332621,464133,253506,47754,-354497,1636549353.975473,1636549353.969259,12
513,0,144377,217819,365322,332657,464185,253576,47861,-354457,1636549353.9754753,1636549353.969259,12
514,0,144308,217764,365301,332583,464092,253493,47868,-354285,1636549353.9850993,1636549354.038317,13
515,0,144406,217719,365193,332551,464095,253479,47942,-354212,1636549353.9891512,1636549354.038317,13
516,0,144315,217827,365344,332665,464173,253491,47834,-354496,1636549353.9891536,1636549354.038317,13
517,0,144413,217948,365456,332786,464326,253625,47838,-354713,1636549353.9952924,1636549354.038317,13
518,0,144491,218007,365528,332869,464394,253699,47847,-354692,1636549353.9952996,1636549354.038317,13
519,0,144477,217943,365462,332778,464283,253619,47734,-354484,1636549354.0057957,1636549354.038317,13
520,0,144554,217876,365391,332713,464247,253575,47816,-354225,1636549354.0057976,1636549354.038317,13
521,0,144471,217799,365284,332624,464184,253589,47959,-354375,1636549354.0058088,1636549354.038317,13
522,0,144383,217751,365213,332538,464091,253553,47945,-354466,1636549354.0058093,1636549354.038317,13
523,0,144350,217741,365234,332550,464104,253553,48049,-354222,1636549354.005812,1636549354.038317,13
524,0,144400,217803,365336,332678,464227,253672,48081,-354184,1636549354.0058124,1636549354.038317,13
525,0,144448,217825,365359,332704,464258,253681,48033,-354212,1636549354.0104346,1636549354.038317,13
526,0,144391,217763,365294,332624,464199,253612,47983,-354350,1636549354.0104375,1636549354.038317,13
527,0,144371,217743,365279,332595,464149,253547,47941,-354406,1636549354,1636549354.038317,13
528,0,144426,217744,365291,332594,464158,253555,47946,-354321,1636549354.020662,1636549354.038317,13
529,0,144428,217654,365292,332598,464156,253571,47909,-354381,1636549354.0266085,1636549354.038317,13
530,0,144375,217482,365152,332454,464013,253442,47733,-354502,1636549354.026611,1636549354.038317,13
531,0,144383,217706,365221,332518,464061,253468,47693,-354497,1636549354.0266309,1636549354.038317,13
532,0,144370,217954,365428,332699,464238,253630,47845,-354468,1636549354.026631,1636549354.038317,13
533,0,144264,217594,365165,332470,464048,253486,47916,-354454,1636549354.026634,1636549354.038317,13
534,0,144319,217611,365161,332483,464071,253538,48075,-354334,1636549354.0266345,1636549354.038317,13
535,0,144439,217959,365435,332668,464209,253595,47993,-354357,1636549354.031906,1636549354.038317,13
536,0,144391,217863,365346,332599,464147,253536,47865,-354452,1636549354.0319085,1636549354.038317,13
537,0,144325,217748,365249,332523,464099,253473,47814,-354517,1636549354.0348291,1636549354.038317,13
538,0,144343,217792,365308,332569,464148,253519,47835,-354482,1636549354.0348337,1636549354.038317,13
539,0,144294,217729,365243,332518,464083,253466,47782,-354526,1636549354.0368688,1636549354.038317,13
540,0,144379,217757,365299,332594,464154,253543,47847,-354476,1636549354,1636549354.038317,13
541,0,144370,217758,365298,332623,464186,253576,47854,-354479,1636549354.0410805,1636549354.038317,13
542,0,144362,217818,365311,332614,464179,253561,47844,-354494,1636549354.0410826,1636549354.038317,13
543,0,144359,217811,365308,332616,464191,253573,47881,-354482,1636549354.0449018,1636549354.038317,13
544,0,144493,217906,365446,332771,464341,253714,48016,-354344,1636549354.0449047,1636549354.038317,13
545,0,144359,217811,365308,332616,464191,253573,47881,-354482,1636549354.0449018,1636549354.106926,14
546,0,144493,217906,365446,332771,464341,253714,48016,-354344,1636549354.0449047,1636549354.106926,14
547,0,144514,217906,365419,332716,464276,253636,47948,-354329,1636549354.0490737,1636549354.106926,14
548,0,144469,217871,365436,332736,464301,253606,47808,-354406,1636549354.049078,1636549354.106926,14
549,0,144459,217810,365380,332685,464266,253569,47798,-354431,1636549354.0530534,1636549354.106926,14
550,0,144408,217822,365385,332693,464283,253607,47955,-354427,1636549354.053056,1636549354.106926,14
551,0,144276,217748,365284,332574,464159,253555,47969,-354504,1636549354.0574024,1636549354.106926,14
552,0,144303,217719,365268,332549,464130,253536,47864,-354514,1636549354.0574048,1636549354.106926,14
553,0,144374,217759,365324,332605,464186,253574,47771,-354502,1636549354.0612297,1636549354.106926,14
554,0,144460,217768,365318,332637,464220,253615,47713,-354574,1636549354.0612323,1636549354.106926,14
555,0,144446,217944,365486,332777,464344,253729,47829,-354786,1636549354.0650313,1636549354.106926,14
556,0,144354,217996,365540,332802,464368,253793,48041,-354635,1636549354.0650337,1636549354.106926,14
557,0,144339,217781,365297,332598,464160,253619,48031,-354245,1636549354.072232,1636549354.106926,14
558,0,144301,217623,365137,332434,464006,253453,47884,-354109,1636549354.072235,1636549354.106926,14
559,0,144340,217710,365227,332526,464086,253540,47920,-354279,1636549354.0750325,1636549354.106926,14
560,0,144312,217753,365308,332601,464148,253600,47911,-354359,1636549354.0750349,1636549354.106926,14
561,0,144351,217789,365343,332633,464182,253621,47886,-354378,1636549354.076833,1636549354.106926,14
562,0,144346,217741,365275,332570,464111,253551,47859,-354399,1636549354.076835,1636549354.106926,14
563,0,144341,217743,365306,332585,464124,253538,47880,-354425,1636549354.081874,1636549354.106926,14
564,0,144310,217694,365281,332556,464095,253510,47823,-354503,1636549354.081876,1636549354.106926,14
565,0,144314,217718,365277,332578,464137,253560,47807,-354659,1636549354.0853753,1636549354.106926,14
566,0,144308,217813,365392,332670,464193,253634,47829,-354719,1636549354.0853772,1636549354.106926,14
567,0,144462,217934,365463,332747,464292,253728,47882,-354457,1636549354.0893328,1636549354.106926,14
568,0,144301,217664,365200,332461,464008,253439,47759,-354322,1636549354.089342,1636549354.106926,14
569,0,144346,217638,365234,332542,464092,253527,47834,-354427,1636549354.093281,1636549354.106926,14
570,0,144437,217836,365412,332722,464278,253707,47893,-354559,1636549354.093285,1636549354.106926,14
571,0,144423,218024,365507,332747,464258,253620,47737,-354594,1636549354.1025174,1636549354.106926,14
572,0,144299,217687,365252,332500,464011,253397,47639,-354399,1636549354,1636549354.106926,14
573,0,144199,217493,365158,332448,463980,253371,47706,-354362,1636549354.1025329,1636549354.106926,14
574,0,144311,217746,365246,332526,464056,253428,47693,-354511,1636549354.102533,1636549354.106926,14
575,0,144511,218061,365488,332742,464259,253651,47803,-354416,1636549354.1048589,1636549354.106926,14
576,0,144404,217866,365359,332632,464179,253581,47727,-354524,1636549354,1636549354.106926,14
577,0,144362,217826,365331,332587,464160,253628,47854,-354515,1636549354.1109023,1636549354.106926,14
578,0,144262,217724,365222,332502,464085,253561,47945,-354553,1636549354.1109092,1636549354.106926,14
579,0,144323,217799,365240,332479,464063,253466,47748,-354549,1636549354.125229,1636549354,15
580,0,144412,217909,365359,332607,464197,253624,47918,-354380,1636549354.1252315,1636549354,15
581,0,144430,217871,365325,332589,464179,253618,47968,-354316,1636549354.1290052,1636549354,15
582,0,144352,217755,365224,332491,464081,253511,47845,-354446,1636549354.1290083,1636549354,15
583,0,144348,217754,365211,332497,464086,253503,47844,-354465,1636549354.1353197,1636549354,15
584,0,144351,217838,365344,332585,464143,253538,47806,-354521,1636549354.1353216,1636549354,15
585,0,144293,217693,365213,332528,464114,253544,47769,-354794,1636549354.1373568,1636549354,15
586,0,144326,217843,365314,332582,464146,253588,47841,-354799,1636549354.1373591,1636549354,15
587,0,144404,217919,365386,332636,464182,253618,47861,-354509,1636549354.1408367,1636549354,15
588,0,144374,217722,365193,332470,464032,253453,47767,-354216,1636549354.1408389,1636549354,15
589,0,144447,217783,365272,332557,464106,253505,47811,-354227,1636549354.1450794,1636549354,15
590,0,144481,217920,365423,332706,464264,253661,47929,-354315,1636549354.145082,1636549354,15
591,0,144436,217869,365359,332643,464219,253614,47885,-354369,1636549354.1489155,1636549354,15
592,0,144313,217729,365231,332501,464064,253460,47740,-354495,1636549354.1489177,1636549354,15
593,0,144314,217725,365226,332475,464055,253473,47771,-354497,1636549354.1533875,1636549354,15
594,0,144351,217766,365261,332513,464104,253499,47771,-354503,1636549354,1636549354,15
595,0,144354,217789,365291,332567,464174,253540,47759,-354527,1636549354,1636549354,15
596,0,144379,217821,365342,332597,464183,253569,47780,-354518,1636549354.1582048,1636549354,15
597,0,144447,217853,365323,332534,464114,253511,47730,-354486,1636549354.1612167,1636549354,15
598,0,144510,217893,365394,332606,464199,253573,47716,-354459,1636549354.161219,1636549354,15
599,0,144560,217933,365431,332660,464221,253581,47721,-354431,1636549354.164865,1636549354,15
600,0,144449,217852,365369,332606,464173,253542,47804,-354476,1636549354.1648676,1636549354,15
601,0,144413,217800,365286,332553,464176,253598,48026,-354334,1636549354.1692371,1636549354,15
602,0,144328,217688,365274,332516,464132,253523,47877,-354446,1636549354.1692395,1636549354,15
603,0,144373,217628,365264,332529,464159,253557,47834,-354608,1636549354.1738176,1636549354,15
604,0,144399,217692,365388,332639,464258,253698,47943,-354726,1636549354.173828,1636549354,15
605,0,144518,217985,365563,332764,464348,253774,47948,-354627,1636549354.1768477,1636549354,15
606,0,144483,218044,365476,332689,464255,253650,47824,-354390,1636549354.1768491,1636549354,15
607,0,144324,217727,365206,332423,463990,253374,47572,-354347,1636549354.180844,1636549354,15
608,0,144251,217651,365167,332385,463960,253369,47665,-354352,1636549354.180845,1636549354,15
609,0,144219,217633,365158,332383,463974,253405,47739,-354495,1636549354.1848612,1636549354,15
610,0,144384,217752,365273,332503,464108,253534,47893,-354352,1636549354.184864,1636549354,15
611,0,144418,217804,365313,332553,464144,253580,47983,-354308,1636549354.1889398,1636549354,15
612,0,144415,217804,365327,332561,464143,253550,47898,-354376,1636549354.188942,1636549354,15
613,0,144384,217752,365273,332503,464108,253534,47893,-354352,1636549354.184864,1636549354.254093,16
614,0,144418,217804,365313,332553,464144,253580,47983,-354308,1636549354.1889398,1636549354.254093,16
615,0,144415,217804,365327,332561,464143,253550,47898,-354376,1636549354.188942,1636549354.254093,16
616,0,144448,217819,365363,332599,464165,253557,47824,-354404,1636549354.1929765,1636549354.254093,16
617,0,144405,217760,365331,332572,464145,253528,47813,-354429,1636549354.1929812,1636549354.254093,16
618,0,144384,217738,365292,332553,464141,253530,47804,-354463,1636549354.197147,1636549354.254093,16
619,0,144329,217774,365276,332540,464111,253491,47733,-354551,1636549354.1971502,1636549354.254093,16
620,0,144304,217765,365273,332533,464096,253463,47714,-354561,1636549354.2009168,1636549354.254093,16
621,0,144317,217776,365285,332541,464096,253460,47704,-354584,1636549354.2009192,1636549354.254093,16
622,0,144354,217834,365310,332555,464128,253488,47663,-354648,1636549354.2051003,1636549354.254093,16
623,0,144472,217941,365408,332646,464226,253578,47671,-354577,1636549354.2051024,1636549354.254093,16
624,0,144421,217863,365350,332603,464207,253580,47700,-354622,1636549354.2090092,1636549354.254093,16
625,0,144234,217671,365204,332458,464080,253477,47696,-354836,1636549354.2090113,1636549354.254093,16
626,0,144303,217774,365316,332544,464166,253558,47887,-354576,1636549354.213068,1636549354.254093,16
627,0,144349,217817,365324,332534,464129,253503,47886,-354280,1636549354,1636549354.254093,16
628,0,144391,217873,365397,332590,464149,253508,47844,-354177,1636549354.2168128,1636549354.254093,16
629,0,144321,217822,365346,332573,464148,253504,47781,-354425,1636549354.216816,1636549354.254093,16
630,0,144196,217729,365228,332461,464043,253400,47658,-354621,1636549354.221454,1636549354.254093,16
631,0,144254,217783,365256,332493,464081,253419,47642,-354620,1636549354.221456,1636549354.254093,16
632,0,144260,217832,365329,332568,464156,253442,47644,-354618,1636549354.226538,1636549354.254093,16
633,0,144369,217916,365440,332682,464276,253548,47743,-354491,1636549354.2265415,1636549354.254093,16
634,0,144346,217828,365354,332599,464216,253566,47849,-354456,1636549354.231838,1636549354.254093,16
635,0,144138,217581,365068,332291,463924,253364,47740,-354607,1636549354.2318406,1636549354.254093,16
636,0,144207,217693,365158,332369,463963,253389,47790,-354562,1636549354,1636549354.254093,16
637,0,144122,217752,365240,332478,464069,253444,47733,-354621,1636549354.2330625,1636549354.254093,16
638,0,144239,217890,365400,332642,464191,253539,47680,-354576,1636549354.2373295,1636549354.254093,16
639,0,144221,217784,365248,332492,464053,253412,47618,-354610,1636549354.2373316,1636549354.254093,16
640,0,144332,217851,365310,332556,464136,253518,47829,-354501,1636549354.2408614,1636549354.254093,16
641,0,144296,217881,365344,332594,464185,253576,47956,-354519,1636549354.2408645,1636549354.254093,16
642,0,144219,217828,365308,332551,464138,253491,47788,-354591,1636549354.2448173,1636549354.254093,16
643,0,144186,217776,365250,332503,464081,253424,47771,-354558,1636549354,1636549354.254093,16
644,0,144201,217840,365345,332596,464197,253562,47885,-354506,1636549354.2487457,1636549354.254093,16
645,0,144234,217879,365383,332601,464199,253534,47759,-354677,1636549354.248747,1636549354.254093,16
646,0,144270,217913,365404,332588,464194,253543,47704,-354774,1636549354.2529793,1636549354.254093,16
647,0,144222,217863,365333,332528,464146,253523,47685,-354691,1636549354.2529812,1636549354.254093,16
648,0,144244,217811,365291,332497,464131,253506,47762,-354435,1636549354.2587717,1636549354.254093,16
649,0,144148,217673,365156,332364,464024,253399,47788,-354411,1636549354.258778,1636549354.254093,16
650,0,144123,217687,365176,332371,464014,253384,47798,-354512,1636549354.2607114,1636549354.254093,16
651,0,144138,217668,365205,332407,464045,253401,47761,-354534,1636549354.2607136,1636549354.254093,16
652,0,144192,217539,365201,332430,464093,253446,47818,-354457,1636549354.2680433,1636549354.338753,17
653,0,144211,217471,365183,332451,464131,253489,47827,-354483,1636549354.2680464,1636549354.338753,17
654,0,144323,218001,365486,332677,464296,253609,47823,-354644,1636549354.268701,1636549354.338753,17
655,0,144309,218161,365593,332759,464346,253656,47789,-354980,1636549354.268702,1636549354.338753,17
656,0,144451,218160,365619,332828,464429,253749,47907,-354733,1636549354.2727442,1636549354.338753,17
657,0,144379,218036,365488,332695,464316,253612,47796,-354417,1636549354.2727475,1636549354.338753,17
658,0,144195,217739,365249,332425,464051,253346,47645,-354191,1636549354.2767816,1636549354.338753,17
659,0,144146,217642,365168,332340,463956,253294,47609,-354409,1636549354.276784,1636549354.338753,17
660,0,144180,217706,365229,332447,464045,253391,47653,-354609,1636549354.2810748,1636549354.338753,17
661,0,144181,217726,365261,332482,464086,253413,47673,-354611,1636549354.281077,1636549354.338753,17
662,0,144210,217753,365246,332431,464049,253354,47693,-354506,1636549354.285066,1636549354.338753,17
663,0,144262,217813,365273,332447,464053,253346,47689,-354479,1636549354.2850685,1636549354.338753,17
664,0,144338,217903,365399,332569,464163,253428,47708,-354492,1636549354.2891085,1636549354.338753,17
665,0,144264,217848,365355,332556,464164,253391,47537,-354638,1636549354.2891107,1636549354.338753,17
666,0,144387,217983,365484,332700,464298,253511,47601,-354581,1636549354.2933953,1636549354.338753,17
667,0,144293,217864,365383,332581,464201,253476,47745,-354581,1636549354.2933972,1636549354.338753,17
668,0,144163,217616,365097,332301,463962,253359,47901,-354505,1636549354.2968993,1636549354.338753,17
669,0,144178,217619,365100,332316,463981,253383,47911,-354504,1636549354.296902,1636549354.338753,17
670,0,144221,217742,365242,332444,464079,253424,47784,-354552,1636549354.301607,1636549354.338753,17
671,0,144315,217760,365238,332453,464113,253451,47811,-354482,1636549354.3016095,1636549354.338753,17
672,0,144369,218027,365472,332614,464246,253532,47837,-354487,1636549354.305081,1636549354.338753,17
673,0,144360,218036,365503,332656,464295,253571,47860,-354470,1636549354.3050833,1636549354.338753,17
674,0,144439,218019,365498,332656,464303,253571,47851,-354434,1636549354.3087423,1636549354.338753,17
675,0,144412,217946,365466,332648,464275,253541,47726,-354506,1636549354.3087444,1636549354.338753,17
676,0,144433,217943,365439,332623,464240,253508,47663,-354537,1636549354.3130505,1636549354.338753,17
677,0,144335,217904,365406,332574,464211,253466,47675,-354596,1636549354.3130698,1636549354.338753,17
678,0,144174,217801,365338,332536,464197,253453,47773,-354595,1636549354.322022,1636549354.338753,17
679,0,144259,217838,365336,332518,464159,253438,47809,-354535,1636549354.322024,1636549354.338753,17
680,0,144208,217761,365280,332451,464061,253308,47613,-354646,1636549354.3235865,1636549354.338753,17
681,0,144228,217792,365322,332473,464070,253273,47565,-354641,1636549354.3235905,1636549354.338753,17
682,0,144361,217922,365422,332573,464188,253409,47653,-354592,1636549354.3249865,1636549354.338753,17
683,0,144367,217906,365421,332584,464208,253484,47714,-354607,1636549354.3249905,1636549354.338753,17
684,0,144459,217968,365492,332657,464274,253606,47831,-354450,1636549354.3287187,1636549354.338753,17
685,0,144234,217760,365271,332423,464052,253417,47748,-354501,1636549354.3287227,1636549354.338753,17
686,0,144264,217810,365313,332468,464105,253454,47758,-354537,1636549354,1636549354.338753,17
687,0,144233,217820,365309,332471,464086,253393,47623,-354719,1636549354.332723,1636549354.338753,17
688,0,144233,217855,365371,332529,464144,253464,47633,-354939,1636549354.3366752,1636549354.338753,17
689,0,144214,217859,365360,332510,464123,253489,47704,-354902,1636549354.3366766,1636549354.338753,17
690,0,144205,217835,365339,332496,464098,253455,47672,-354672,1636549354.344099,1636549354.338753,17
691,0,144282,217775,365323,332500,464122,253449,47681,-354470,1636549354.3441036,1636549354.338753,17
692,0,144233,217576,365219,332431,464071,253424,47673,-354496,1636549354.3446925,1636549354.338753,17
693,0,144287,217604,365276,332487,464108,253446,47683,-354377,1636549354.344694,1636549354.338753,17
694,0,144424,217955,365438,332574,464142,253445,47695,-354265,1636549354.348779,1636549354.407601,18
695,0,144299,217964,365383,332493,464079,253340,47531,-354579,1636549354.348781,1636549354.407601,18
696,0,144284,217881,365355,332508,464108,253378,47516,-354721,1636549354.3526912,1636549354.407601,18
697,0,144405,218061,365573,332722,464326,253605,47722,-354829,1636549354.3526936,1636549354.407601,18
698,0,144353,218047,365566,332712,464328,253649,47807,-354799,1636549354.356825,1636549354.407601,18
699,0,144249,217771,365234,332413,464059,253456,47827,-354585,1636549354.3568294,1636549354.407601,18
700,0,144149,217579,365126,332282,463914,253294,47767,-354406,1636549354.3609726,1636549354.407601,18
701,0,144193,217646,365157,332318,463947,253316,47706,-354537,1636549354.3609748,1636549354.407601,18
702,0,144304,217823,365279,332421,464023,253365,47734,-354484,1636549354.3646815,1636549354.407601,18
703,0,144206,217783,365296,332454,464061,253380,47669,-354637,1636549354.3646836,1636549354.407601,18
704,0,144284,217856,365376,332553,464158,253475,47710,-354612,1636549354.3687167,1636549354.407601,18
705,0,144307,217818,365325,332481,464076,253391,47613,-354634,1636549354.368719,1636549354.407601,18
706,0,144283,217884,365383,332537,464141,253466,47738,-354526,1636549354.372552,1636549354.407601,18
707,0,144233,217853,365351,332499,464104,253447,47756,-354477,1636549354.3725543,1636549354.407601,18
708,0,144273,217869,365386,332533,464142,253464,47694,-354564,1636549354.3770013,1636549354.407601,18
709,0,144204,217819,365338,332480,464108,253438,47666,-354647,1636549354.377012,1636549354.407601,18
710,0,144206,217773,365289,332440,464064,253424,47731,-354596,1636549354.381214,1636549354.407601,18
711,0,144151,217669,365191,332355,463993,253336,47648,-354651,1636549354.381216,1636549354.407601,18
712,0,144226,217732,365273,332434,464084,253414,47690,-354606,1636549354.3849792,1636549354.407601,18
713,0,144214,217804,365352,332477,464117,253398,47598,-354676,1636549354.3849812,1636549354.407601,18
714,0,144296,217816,365359,332503,464138,253412,47615,-354604,1636549354.389037,1636549354.407601,18
715,0,144203,217689,365224,332400,464041,253293,47497,-354716,1636549354.3890388,1636549354.407601,18
716,0,144206,217870,365384,332501,464101,253339,47544,-354743,1636549354.392797,1636549354.407601,18
717,0,144232,217844,365358,332501,464123,253393,47693,-354660,1636549354.3928022,1636549354.407601,18
718,0,144211,217833,365320,332468,464101,253404,47703,-354671,1636549354.3978503,1636549354.407601,18
719,0,144232,217873,365387,332555,464185,253519,47721,-354826,1636549354.397856,1636549354.407601,18
720,0,144174,217818,365346,332517,464176,253516,47675,-354996,1636549354.402139,1636549354.407601,18
721,0,144274,217928,365458,332617,464271,253569,47697,-354763,1636549354.4021413,1636549354.407601,18
722,0,144305,217828,365320,332451,464115,253421,47669,-354379,1636549354.4045956,1636549354.407601,18
723,0,144187,217611,365130,332278,463953,253264,47579,-354423,1636549354.404597,1636549354.407601,18
724,0,144169,217661,365182,332379,464048,253374,47589,-354527,1636549354.4086134,1636549354.407601,18
725,0,144193,217809,365298,332458,464082,253339,47461,-354605,1636549354.4086156,1636549354.407601,18
726,0,144246,218053,365534,332668,464254,253468,47587,-354684,1636549354.4127645,1636549354.407601,18
727,0,144193,217926,365419,332580,464186,253441,47729,-354826,1636549354.4127667,1636549354.407601,18
728,0,144247,218019,365504,332678,464296,253568,47853,-354836,1636549354.4177084,1636549354.476386,19
729,0,144289,217976,365531,332690,464287,253566,47767,-354712,1636549354.417711,1636549354.476386,19
730,0,144248,217733,365340,332511,464123,253443,47705,-354417,1636549354.4257739,1636549354.476386,19
731,0,144224,217829,365250,332449,464063,253398,47643,-354377,1636549354.4257784,1636549354.476386,19
732,0,144144,217828,365193,332354,463960,253333,47697,-354404,1636549354.4319215,1636549354.476386,19
733,0,144191,217798,365240,332419,464032,253393,47738,-354466,1636549354.431924,1636549354.476386,19
734,0,144327,217904,365390,332558,464158,253503,47771,-354424,1636549354.431968,1636549354.476386,19
735,0,144273,217921,365381,332516,464128,253456,47673,-354522,1636549354.4319685,1636549354.476386,19
736,0,144288,218017,365448,332579,464188,253477,47722,-354526,1636549354.4385777,1636549354.476386,19
737,0,144378,218026,365478,332659,464259,253568,47799,-354433,1636549354.4385796,1636549354.476386,19
738,0,144284,217907,365351,332535,464148,253483,47718,-354526,1636549354.4385924,1636549354.476386,19
739,0,144166,217795,365248,332401,464024,253366,47607,-354666,1636549354.438593,1636549354.476386,19
740,0,144300,217909,365261,332435,464062,253395,47639,-354587,1636549354,1636549354.476386,19
741,0,144191,217998,365441,332571,464154,253459,47644,-354634,1636549354.4422624,1636549354.476386,19
742,0,144183,217934,365399,332548,464148,253471,47666,-354634,1636549354.4450943,1636549354.476386,19
743,0,144238,217947,365386,332563,464182,253535,47832,-354515,1636549354.4450965,1636549354.476386,19
744,0,144237,217917,365361,332515,464134,253518,47826,-354502,1636549354.4489625,1636549354.476386,19
745,0,144134,217804,365276,332419,464066,253396,47653,-354650,1636549354.4489648,1636549354.476386,19
746,0,144183,217833,365311,332452,464102,253436,47691,-354596,1636549354,1636549354.476386,19
747,0,144148,217733,365239,332367,464009,253386,47680,-354601,1636549354.455083,1636549354.476386,19
748,0,144138,217675,365150,332324,463980,253361,47612,-354626,1636549354.4673796,1636549354.476386,19
749,0,144124,217801,365256,332391,464028,253339,47512,-354736,1636549354.467383,1636549354.476386,19
750,0,144246,218041,365479,332596,464186,253458,47531,-354690,1636549354.4674022,1636549354.476386,19
751,0,144309,218033,365492,332628,464223,253512,47512,-354672,1636549354.4674027,1636549354.476386,19
752,0,144266,217951,365406,332558,464148,253494,47581,-354664,1636549354.4674056,1636549354.476386,19
753,0,144158,217836,365285,332445,464057,253434,47714,-354644,1636549354.4674065,1636549354.476386,19
754,0,144204,217839,365274,332429,464034,253408,47771,-354557,1636549354.4686446,1636549354.476386,19
755,0,144161,217871,365329,332479,464089,253424,47677,-354649,1636549354.468646,1636549354.476386,19
756,0,144161,217853,365329,332492,464094,253409,47576,-354702,1636549354.472776,1636549354.476386,19
757,0,144151,217808,365275,332436,464064,253389,47569,-354699,1636549354.4727893,1636549354.476386,19
758,0,144172,217840,365299,332462,464113,253433,47627,-354739,1636549354.476738,1636549354.476386,19
759,0,144078,217724,365221,332391,464033,253372,47516,-355031,1636549354.4767404,1636549354.476386,19
760,0,144053,217639,365164,332353,463995,253343,47454,-355006,1636549354.4804888,1636549354.476386,19
761,0,144112,217824,365302,332473,464099,253381,47412,-354751,1636549354,1636549354.476386,19
762,0,144079,217779,365252,332374,463964,253243,47444,-354617,1636549354.495411,1636549354.554561,20
763,0,144178,217893,365373,332490,464103,253394,47632,-354597,1636549354.4954572,1636549354.554561,20
764,0,144134,217824,365299,332409,464011,253346,47635,-354593,1636549354.495458,1636549354.554561,20
765,0,144151,217833,365313,332438,464063,253403,47687,-354575,1636549354.495463,1636549354.554561,20
766,0,144206,217879,365330,332431,464069,253399,47600,-354602,1636549354.4954634,1636549354.554561,20
767,0,144189,217843,365275,332372,464007,253341,47627,-354556,1636549354.497248,1636549354.554561,20
768,0,144101,217838,365344,332472,464118,253439,47746,-354522,1636549354.497251,1636549354.554561,20
769,0,144084,217673,365281,332400,464068,253418,47726,-354521,1636549354.500593,1636549354.554561,20
770,0,144124,217633,365203,332329,464013,253383,47674,-354586,1636549354.5005953,1636549354.554561,20
771,0,144151,218048,365408,332474,464148,253474,47614,-354793,1636549354.5045784,1636549354.554561,20
772,0,144221,218116,365507,332583,464248,253551,47693,-354653,1636549354.5045805,1636549354.554561,20
773,0,144253,218084,365514,332563,464210,253513,47693,-354477,1636549354.508514,1636549354.554561,20
774,0,144274,218029,365423,332497,464160,253488,47676,-354577,1636549354.5085175,1636549354.554561,20
775,0,144238,218057,365466,332546,464214,253530,47644,-354706,1636549354.512513,1636549354.554561,20
776,0,144189,217929,365380,332461,464111,253384,47481,-354575,1636549354.5125153,1636549354.554561,20
777,0,144190,217791,365238,332318,463959,253239,47374,-354361,1636549354.5164673,1636549354.554561,20
778,0,144096,217778,365242,332341,463994,253278,47365,-354597,1636549354.5164697,1636549354.554561,20
779,0,144116,217834,365316,332421,464081,253376,47509,-354627,1636549354.5331585,1636549354.554561,20
780,0,144108,217892,365334,332414,464044,253389,47694,-354556,1636549354.533162,1636549354.554561,20
781,0,144097,217817,365234,332334,463963,253348,47714,-354517,1636549354.5331795,1636549354.554561,20
782,0,144171,217851,365308,332401,464024,253376,47670,-354518,1636549354.5331802,1636549354.554561,20
783,0,144213,217843,365346,332453,464094,253413,47673,-354497,1636549354.533183,1636549354.554561,20
784,0,144153,217728,365219,332366,464035,253353,47569,-354584,1636549354.5331836,1636549354.554561,20
785,0,144163,217899,365344,332434,464073,253334,47464,-354674,1636549354.5331862,1636549354.554561,20
786,0,144246,217991,365406,332456,464071,253336,47480,-354635,1636549354.5331867,1636549354.554561,20
787,0,144259,217928,365365,332424,464061,253331,47470,-354626,1636549354.5379012,1636549354.554561,20
788,0,144169,217909,365341,332416,464041,253321,47449,-354726,1636549354.5379033,1636549354.554561,20
789,0,144161,217882,365309,332408,464058,253407,47573,-354744,1636549354.542569,1636549354.554561,20
790,0,144258,217914,365348,332454,464108,253501,47715,-354813,1636549354.5425808,1636549354.554561,20
791,0,144242,217881,365338,332434,464094,253481,47709,-354693,1636549354.5446537,1636549354.554561,20
792,0,144229,217848,365313,332386,464030,253376,47573,-354447,1636549354.5446577,1636549354.554561,20
793,0,144313,217861,365318,332388,464028,253385,47653,-354188,1636549354.548725,1636549354.554561,20
794,0,144159,217746,365218,332287,463951,253284,47531,-354541,1636549354.5487263,1636549354.554561,20
795,0,144163,217820,365344,332426,464076,253359,47567,-354604,1636549354.5524049,1636549354.554561,20
796,0,144159,217826,365317,332401,464031,253305,47510,-354641,1636549354.5524075,1636549354.554561,20
797,0,144237,217795,365298,332360,464025,253341,47537,-354557,1636549354.559709,1636549354.554561,20
798,0,144236,217701,365209,332303,464003,253347,47524,-354551,1636549354.5597112,1636549354.554561,20
799,0,144184,217734,365210,332303,463981,253369,47583,-354586,1636549354.5603151,1636549354.554561,20
800,0,144240,217948,365384,332424,464074,253449,47626,-354659,1636549354.5603244,1636549354.554561,20
801,0,144184,217734,365210,332303,463981,253369,47583,-354586,1636549354.5603151,1636549354.623567,21
802,0,144240,217948,365384,332424,464074,253449,47626,-354659,1636549354.5603244,1636549354.623567,21
803,0,144299,217979,365436,332506,464162,253492,47621,-354594,1636549354.5646095,1636549354.623567,21
804,0,144270,217942,365422,332500,464150,253441,47431,-354621,1636549354.5646124,1636549354.623567,21
805,0,144379,218030,365510,332569,464216,253479,47477,-354485,1636549354.5683732,1636549354.623567,21
806,0,144211,217833,365336,332413,464045,253329,47438,-354612,1636549354.568376,1636549354.623567,21
807,0,144143,217754,365289,332388,464009,253351,47690,-354542,1636549354.5773392,1636549354.623567,21
808,0,144318,217905,365459,332553,464148,253484,47821,-354363,1636549354.5773416,1636549354.623567,21
809,0,144235,217792,365420,332528,464136,253473,47678,-354480,1636549354.5773537,1636549354.623567,21
810,0,144133,217782,365297,332403,464051,253364,47508,-354643,1636549354.5773542,1636549354.623567,21
811,0,144246,218045,365426,332423,464049,253360,47552,-354569,1636549354.5810025,1636549354.623567,21
812,0,144117,217801,365246,332296,463936,253289,47546,-354602,1636549354.5810044,1636549354.623567,21
813,0,144083,217729,365183,332253,463901,253253,47524,-354582,1636549354.5846565,1636549354.623567,21
814,0,144215,217831,365288,332359,463990,253350,47657,-354499,1636549354.5846589,1636549354.623567,21
815,0,144279,217841,365329,332411,464054,253445,47689,-354611,1636549354.5888689,1636549354.623567,21
816,0,144150,217623,365049,332155,463854,253258,47462,-354802,1636549354.5888767,1636549354.623567,21
817,0,144153,217828,365269,332297,463929,253282,47459,-354659,1636549354.5924833,1636549354.623567,21
818,0,144119,217883,365367,332393,463999,253331,47570,-354410,1636549354.5924854,1636549354.623567,21
819,0,144054,217776,365268,332328,463947,253270,47483,-354547,1636549354.5970955,1636549354.623567,21
820,0,144134,217828,365318,332362,464011,253309,47468,-354606,1636549354.5970993,1636549354.623567,21
821,0,144081,217695,365211,332257,463924,253259,47439,-354671,1636549354.600484,1636549354.623567,21
822,0,144165,217703,365227,332296,464008,253416,47674,-354689,1636549354.6004865,1636549354.623567,21
823,0,144348,217908,365389,332482,464194,253581,47748,-354714,1636549354.6049132,1636549354.623567,21
824,0,144413,218078,365514,332564,464227,253560,47638,-354582,1636549354.6049156,1636549354.623567,21
825,0,144308,217954,365395,332424,464073,253415,47564,-354497,1636549354.6086721,1636549354.623567,21
826,0,144135,217817,365296,332341,463960,253328,47511,-354625,1636549354.6086829,1636549354.623567,21
827,0,144076,217819,365329,332383,464013,253339,47413,-354619,1636549354.612608,1636549354.623567,21
828,0,144164,217788,365278,332324,463952,253236,47306,-354337,1636549354.612613,1636549354.623567,21
829,0,144188,217778,365242,332283,463927,253228,47381,-354391,1636549354.6163735,1636549354.623567,21
830,0,144098,217679,365186,332236,463873,253249,47579,-354526,1636549354.616377,1636549354.623567,21
831,0,144050,217559,365097,332179,463818,253242,47704,-354478,1636549354.6204302,1636549354.623567,21
832,0,144191,217805,365301,332372,464019,253376,47678,-354464,1636549354.6204324,1636549354.623567,21
833,0,144348,218098,365515,332533,464159,253449,47648,-354439,1636549354.624758,1636549354.623567,21
834,0,144326,217996,365441,332482,464140,253444,47670,-354409,1636549355,1636549354.623567,21
835,0,144106,217679,365275,332344,464013,253360,47493,-354632,1636549354.6450384,1636549354.677032,22
836,0,144220,218028,365422,332436,464111,253444,47643,-354526,1636549354.6450405,1636549354.677032,22
837,0,144171,217964,365361,332372,464046,253454,47746,-354486,1636549354.6450531,1636549354.677032,22
838,0,144151,217864,365310,332338,464013,253402,47701,-354505,1636549354.6450536,1636549354.677032,22
839,0,144210,217892,365311,332361,464003,253377,47629,-354571,1636549354.6498964,1636549354.677032,22
840,0,144091,217787,365199,332234,463883,253240,47463,-354709,1636549354.6498992,1636549354.677032,22
841,0,144093,217824,365276,332304,463978,253348,47561,-354629,1636549354.6527588,1636549354.677032,22
842,0,144205,217879,365320,332329,463960,253341,47585,-354486,1636549354.6527607,1636549354.677032,22
843,0,144119,217892,365294,332341,463988,253361,47566,-354574,1636549354.6688304,1636549354.677032,22
844,0,144126,217925,365401,332431,464071,253433,47601,-354627,1636549354.6688352,1636549354.677032,22
845,0,144148,217896,365390,332429,464079,253438,47593,-354708,1636549354.6688545,1636549354.677032,22
846,0,144084,217826,365303,332343,463999,253364,47506,-354655,1636549354.668856,1636549354.677032,22
847,0,144141,217774,365256,332299,463956,253326,47563,-354371,1636549354.6688588,1636549354.677032,22
848,0,144122,217752,365229,332291,463959,253325,47553,-354434,1636549354.6688592,1636549354.677032,22
849,0,144274,218060,365506,332519,464152,253457,47543,-354476,1636549354.6688619,1636549354.677032,22
850,0,144220,217987,365460,332458,464089,253394,47463,-354569,1636549354.6688623,1636549354.677032,22
851,0,144224,217992,365476,332466,464129,253434,47543,-354690,1636549354.6724808,1636549354.677032,22
852,0,144178,217973,365476,332485,464183,253513,47727,-354984,1636549354.672486,1636549354.677032,22
853,0,144139,217922,365403,332465,464183,253555,47739,-354833,1636549355,1636549354.677032,22
854,0,144102,217960,365406,332394,464059,253399,47551,-354442,1636549354.6765637,1636549354.677032,22
855,0,144037,217698,365138,332125,463770,253140,47428,-354127,1636549354.680457,1636549354.677032,22
856,0,144124,217802,365246,332258,463896,253273,47547,-354354,1636549354.6804583,1636549354.677032,22
857,0,144098,217833,365264,332273,463896,253272,47535,-354531,1636549354.684342,1636549354.677032,22
858,0,144143,217881,365300,332304,463954,253318,47564,-354516,1636549354.6843443,1636549354.677032,22
859,0,144127,217848,365319,332348,464009,253354,47533,-354514,1636549355,1636549354.677032,22
860,0,144081,217743,365231,332289,463963,253302,47418,-354586,1636549354.688182,1636549354.677032,22
861,0,144143,217881,365300,332304,463954,253318,47564,-354516,1636549354.6843443,1636549354.755142,23
862,0,144127,217848,365319,332348,464009,253354,47533,-354514,1636549355,1636549354.755142,23
863,0,144081,217743,365231,332289,463963,253302,47418,-354586,1636549354.688182,1636549354.755142,23
864,0,144119,217907,365371,332414,464063,253360,47480,-354626,1636549354.693022,1636549354.755142,23
865,0,144156,217982,365406,332402,464021,253393,47605,-354614,1636549354.6930263,1636549354.755142,23
866,0,144073,217767,365264,332298,463955,253333,47580,-354661,1636549354.6967568,1636549354.755142,23
867,0,144043,217733,365241,332258,463921,253272,47447,-354729,1636549354.696764,1636549354.755142,23
868,0,144000,217753,365208,332220,463884,253224,47368,-354756,1636549354.7005568,1636549354.755142,23
869,0,144076,217774,365295,332322,463983,253352,47483,-354680,1636549354.7005608,1636549354.755142,23
870,0,144181,217733,365354,332381,464046,253448,47640,-354564,1636549354.7045593,1636549354.755142,23
871,0,144189,217751,365306,332359,464031,253433,47650,-354581,1636549354.7045622,1636549354.755142,23
872,0,144186,218049,365419,332401,464024,253389,47558,-354601,1636549354.708358,1636549354.755142,23
873,0,143966,217851,365279,332251,463878,253251,47460,-354680,1636549354.7083638,1636549354.755142,23
874,0,144001,217790,365241,332268,463912,253258,47435,-354706,1636549354.712474,1636549354.755142,23
875,0,144092,217876,365342,332369,464000,253324,47488,-354607,1636549354.7124765,1636549354.755142,23
876,0,144243,218031,365481,332487,464104,253389,47476,-354556,1636549354.7163787,1636549354.755142,23
877,0,144201,217998,365440,332444,464071,253387,47478,-354656,1636549354.7163815,1636549354.755142,23
878,0,144257,218023,365469,332501,464158,253519,47606,-354664,1636549354.7209225,1636549354.755142,23
879,0,144206,217916,365373,332428,464101,253511,47670,-354671,1636549354.7209244,1636549354.755142,23
880,0,144113,217788,365229,332290,463966,253397,47541,-354659,1636549354.7244737,1636549354.755142,23
881,0,144131,217894,365363,332363,463993,253332,47353,-354691,1636549354.7244945,1636549354.755142,23
882,0,144201,217928,365390,332401,464067,253429,47498,-354544,1636549354.730676,1636549354.755142,23
883,0,144067,217799,365268,332275,463929,253320,47509,-354632,1636549354.7306783,1636549354.755142,23
884,0,144091,217881,365381,332386,464018,253399,47670,-354549,1636549354.7367628,1636549354.755142,23
885,0,144019,217885,365384,332393,464026,253418,47640,-354592,1636549354.736765,1636549354.755142,23
886,0,143982,217814,365282,332274,463909,253302,47506,-354701,1636549354.7392435,1636549354.755142,23
887,0,144037,217864,365313,332306,463958,253350,47539,-354723,1636549354.7392457,1636549354.755142,23
888,0,143926,217703,365178,332169,463858,253267,47434,-354832,1636549354.741547,1636549354.755142,23
889,0,143864,217519,365053,332102,463826,253240,47389,-355118,1636549354.7415502,1636549354.755142,23
890,0,143934,217759,365278,332289,463971,253361,47413,-355139,1636549354.744861,1636549354.755142,23
891,0,144085,218121,365548,332483,464092,253437,47453,-354724,1636549354.7448704,1636549354.755142,23
892,0,144190,218024,365421,332374,463998,253327,47510,-354134,1636549354.752246,1636549354.755142,23
893,0,144072,217826,365301,332284,463910,253283,47535,-354286,1636549354.7522488,1636549354.755142,23
894,0,144022,217839,365300,332286,463916,253309,47519,-354549,1636549354.7539463,1636549354.755142,23
895,0,144005,217828,365299,332296,463928,253299,47499,-354606,1636549354.7539477,1636549354.755142,23
896,0,143966,217779,365255,332271,463896,253265,47434,-354681,1636549354.7562013,1636549354.755142,23
897,0,144038,217848,365332,332358,463987,253348,47493,-354656,1636549354.7562034,1636549354.755142,23
898,0,144036,217866,365348,332355,463996,253356,47477,-354851,1636549354.7622857,1636549354.755142,23
899,0,144091,217980,365421,332419,464073,253407,47493,-354865,1636549354.7622893,1636549354.755142,23
900,0,144036,217866,365348,332355,463996,253356,47477,-354851,1636549354.7622857,1636549354.824343,24
901,0,144091,217980,365421,332419,464073,253407,47493,-354865,1636549354.7622893,1636549354.824343,24
902,0,143973,217849,365325,332310,463964,253281,47349,-354835,1636549354.7685788,1636549354.824343,24
903,0,143864,217631,365161,332132,463770,253111,47250,-354677,1636549354.7685828,1636549354.824343,24
904,0,143937,217746,365236,332217,463848,253231,47447,-354607,1636549354.768603,1636549354.824343,24
905,0,143920,217763,365231,332205,463814,253219,47404,-354720,1636549354.7686036,1636549354.824343,24
906,0,143934,217749,365205,332179,463796,253176,47401,-354701,1636549354.7722821,1636549354.824343,24
907,0,143926,217776,365290,332278,463899,253295,47478,-354710,1636549354.7722845,1636549354.824343,24
908,0,143870,217612,365231,332226,463848,253248,47403,-354808,1636549354.7765791,1636549354.824343,24
909,0,143940,217649,365241,332252,463881,253286,47432,-354766,1636549354.7765815,1636549354.824343,24
910,0,143981,217924,365318,332285,463902,253256,47362,-354779,1636549354.7806704,1636549354.824343,24
911,0,143967,217851,365276,332234,463828,253186,47286,-354778,1636549354.7806723,1636549354.824343,24
912,0,143952,217773,365244,332216,463831,253177,47173,-354884,1636549354.7846076,1636549354.824343,24
913,0,144121,217980,365452,332429,464051,253368,47291,-354790,1636549355,1636549354.824343,24
914,0,144133,217958,365420,332383,464025,253425,47524,-354648,1636549354.7886271,1636549354.824343,24
915,0,143974,217764,365221,332198,463862,253325,47596,-354692,1636549354.7886293,1636549354.824343,24
916,0,144032,217821,365294,332286,463933,253350,47497,-354711,1636549354.7928412,1636549354.824343,24
917,0,144040,217849,365315,332293,463926,253319,47403,-354716,1636549354.792843,1636549354.824343,24
918,0,143908,217761,365238,332236,463866,253271,47436,-354777,1636549354.797824,1636549354.824343,24
919,0,143984,217768,365229,332231,463869,253288,47533,-354697,1636549354.7978263,1636549354.824343,24
920,0,143901,217744,365219,332204,463837,253248,47443,-354792,1636549354.8003066,1636549354.824343,24
921,0,143892,217688,365178,332171,463818,253239,47404,-354783,1636549354.8003109,1636549354.824343,24
922,0,144036,217802,365229,332250,463925,253333,47520,-354671,1636549354.8045242,1636549354.824343,24
923,0,144074,217899,365344,332311,463967,253351,47533,-354679,1636549354.804526,1636549354.824343,24
924,0,144114,217738,365223,332250,463956,253353,47544,-354612,1636549354.8085995,1636549354.824343,24
925,0,143929,217572,365064,332129,463834,253220,47390,-354763,1636549354.8086014,1636549354.824343,24
926,0,143975,217897,365404,332372,464045,253352,47428,-354750,1636549354.812885,1636549354.824343,24
927,0,143989,217784,365263,332256,463943,253281,47361,-354762,1636549354.8128889,1636549354.824343,24
928,0,144111,217961,365442,332406,464079,253398,47425,-354704,1636549354.8161862,1636549354.824343,24
929,0,144154,218028,365527,332469,464144,253476,47460,-354903,1636549354.816189,1636549354.824343,24
930,0,144083,217983,365468,332448,464151,253504,47502,-355291,1636549354.820577,1636549354.824343,24
931,0,143969,217917,365386,332383,464087,253434,47408,-355159,1636549354.8205795,1636549354.824343,24
932,0,144013,217838,365282,332262,463932,253265,47345,-354551,1636549354.8242228,1636549354.824343,24
933,0,144062,217712,365186,332196,463873,253212,47408,-354207,1636549354.8242247,1636549354.824343,24
934,0,144103,217703,365196,332218,463910,253270,47371,-354665,1636549354.842055,1636549354.909165,25
935,0,144060,217754,365203,332222,463925,253233,47231,-354780,1636549354.8420572,1636549354.909165,25
936,0,144044,217875,365316,332313,464013,253328,47312,-354786,1636549354.842069,1636549354.909165,25
937,0,144093,217863,365314,332328,464017,253363,47511,-354672,1636549354.8420694,1636549354.909165,25
938,0,144087,217811,365316,332329,464016,253358,47583,-354616,1636549354.844329,1636549354.909165,25
939,0,144109,217696,365293,332304,463998,253336,47489,-354607,1636549354.844332,1636549354.909165,25
940,0,144131,217753,365246,332276,463982,253326,47451,-354614,1636549354.8490472,1636549354.909165,25
941,0,144073,217997,365364,332330,464004,253276,47293,-354774,1636549354.8490515,1636549354.909165,25
942,0,144201,218094,365516,332456,464139,253399,47367,-354766,1636549354.8526914,1636549354.909165,25
943,0,144329,218219,365653,332609,464304,253569,47464,-354889,1636549354.8526938,1636549354.909165,25
944,0,144257,218093,365549,332506,464214,253533,47538,-354812,1636549354.8563752,1636549354.909165,25
945,0,144074,217768,365201,332169,463879,253255,47427,-354604,1636549355,1636549354.909165,25
946,0,144022,217661,365096,332072,463788,253163,47415,-354433,1636549354.8603785,1636549354.909165,25
947,0,144079,217766,365204,332160,463871,253239,47466,-354555,1636549354.8603828,1636549354.909165,25
948,0,143948,217736,365222,332180,463904,253251,47419,-354700,1636549354.8642051,1636549354.909165,25
949,0,144001,217716,365199,332169,463913,253239,47356,-354694,1636549354.8642075,1636549354.909165,25
950,0,144101,217807,365310,332276,464009,253321,47385,-354657,1636549354.8685193,1636549354.909165,25
951,0,144028,217725,365246,332208,463935,253236,47289,-354795,1636549354.8685217,1636549354.909165,25
952,0,143953,217527,365050,332060,463819,253143,47299,-354830,1636549354.8721092,1636549354.909165,25
953,0,144011,217799,365254,332206,463923,253227,47402,-354791,1636549354.872112,1636549354.909165,25
954,0,144107,217929,365356,332278,463999,253291,47445,-354751,1636549354.876532,1636549354.909165,25
955,0,144071,217812,365277,332210,463929,253224,47312,-354854,1636549354.8765342,1636549354.909165,25
956,0,144112,217800,365223,332183,463931,253236,47323,-354799,1636549354.880863,1636549354.909165,25
957,0,144138,217861,365293,332251,463971,253291,47450,-354634,1636549354.880865,1636549354.909165,25
958,0,144045,217824,365317,332259,463961,253281,47405,-354812,1636549354.8842006,1636549354.909165,25
959,0,144128,217896,365400,332341,464069,253389,47426,-354997,1636549354.884203,1636549354.909165,25
960,0,144133,217924,365429,332367,464084,253398,47369,-354919,1636549354.8901303,1636549354.909165,25
961,0,144005,217735,365216,332152,463859,253158,47151,-354768,1636549354.8901327,1636549354.909165,25
962,0,144054,217636,365109,332082,463806,253104,47221,-354490,1636549354.8925724,1636549354.909165,25
963,0,144083,217709,365183,332181,463905,253227,47432,-354564,1636549354.8925748,1636549354.909165,25
964,0,144117,217957,365399,332349,464031,253328,47520,-354582,1636549354.8962445,1636549354.909165,25
965,0,144129,217907,365363,332330,464033,253301,47368,-354653,1636549354.8962479,1636549354.909165,25
966,0,144232,217937,365388,332331,464033,253287,47305,-354696,1636549354.9002435,1636549354.909165,25
967,0,144281,217959,365392,332336,464030,253300,47253,-354789,1636549354.900247,1636549354.909165,25
968,0,144343,218006,365445,332384,464096,253392,47330,-354768,1636549354.904517,1636549354.909165,25
969,0,144146,217835,365306,332214,463963,253290,47326,-354902,1636549354.904519,1636549354.909165,25
970,0,143991,217741,365224,332142,463901,253239,47350,-354846,1636549354.9095292,1636549354.909165,25
971,0,143979,217771,365264,332178,463909,253183,47266,-354828,1636549354.9095328,1636549354.909165,25
972,0,144020,217726,365257,332174,463895,253178,47324,-354678,1636549354.9127817,1636549354.909165,25
973,0,144014,217767,365294,332243,463977,253266,47379,-354801,1636549354.912786,1636549354.909165,25
974,0,144083,217811,365303,332253,463991,253255,47339,-354917,1636549354.9164882,1636549354.909165,25
975,0,144063,217669,365159,332120,463871,253157,47250,-354924,1636549354.916493,1636549354.909165,25
976,0,144020,217726,365257,332174,463895,253178,47324,-354678,1636549354.9127817,1636549354.971687,26
977,0,144014,217767,365294,332243,463977,253266,47379,-354801,1636549354.912786,1636549354.971687,26
978,0,144083,217811,365303,332253,463991,253255,47339,-354917,1636549354.9164882,1636549354.971687,26
979,0,144063,217669,365159,332120,463871,253157,47250,-354924,1636549354.916493,1636549354.971687,26
980,0,144093,217690,365153,332120,463864,253163,47166,-354812,1636549354.9201877,1636549354.971687,26
981,0,144153,217753,365179,332099,463849,253158,47219,-354544,1636549354.9201896,1636549354.971687,26
982,0,144119,217654,365091,331999,463759,253146,47397,-354498,1636549354.9240944,1636549354.971687,26
983,0,144055,217716,365178,332094,463834,253218,47503,-354564,1636549354.9240968,1636549354.971687,26
984,0,144126,217752,365262,332205,463932,253281,47504,-354559,1636549354.928482,1636549354.971687,26
985,0,144079,217585,365232,332171,463893,253204,47396,-354652,1636549354.9284847,1636549354.971687,26
986,0,144025,217581,365121,332091,463829,253143,47319,-354729,1636549354.9351373,1636549354.971687,26
987,0,144087,217911,365296,332198,463913,253231,47331,-354726,1636549355,1636549354.971687,26
988,0,144031,217805,365251,332158,463890,253202,47276,-354792,1636549354.937925,1636549354.971687,26
989,0,144115,217841,365287,332198,463923,253221,47256,-354757,1636549354.9379275,1636549354.971687,26
990,0,144114,217826,365278,332177,463908,253209,47171,-354793,1636549354.942952,1636549354.971687,26
991,0,143983,217754,365216,332100,463856,253140,47084,-355128,1636549354.9429588,1636549354.971687,26
992,0,143949,217725,365192,332099,463839,253151,47216,-355181,1636549354.9473708,1636549354.971687,26
993,0,144043,217778,365251,332173,463915,253265,47437,-354807,1636549354.947373,1636549354.971687,26
994,0,144214,217847,365311,332219,463970,253309,47433,-354400,1636549354.9490173,1636549354.971687,26
995,0,144141,217734,365211,332116,463884,253204,47329,-354525,1636549355,1636549354.971687,26
996,0,144166,217824,365269,332173,463923,253230,47326,-354614,1636549354.9524062,1636549354.971687,26
997,0,144136,217820,365283,332198,463961,253262,47403,-354601,1636549354.9524083,1636549354.971687,26
998,0,144121,217760,365255,332178,463965,253291,47496,-354534,1636549354.9566448,1636549354.971687,26
999,0,144032,217648,365139,332039,463801,253142,47327,-354695,1636549354.9566483,1636549354.971687,26
1000,0,144189,217867,365326,332199,463926,253244,47363,-354632,1636549354.9778688,1636549354.971687,26
1001,0,144106,217839,365313,332196,463936,253250,47359,-354691,1636549354.9778712,1636549354.971687,26
1002,0,144114,217878,365339,332241,463968,253291,47380,-354671,1636549354.9778934,1636549354.971687,26
1003,0,144086,217819,365291,332209,463921,253246,47313,-354714,1636549354.9778938,1636549354.971687,26
1004,0,144152,217801,365297,332203,463936,253276,47374,-354641,1636549354.9778967,1636549354.971687,26
1005,0,144028,217506,365034,332001,463774,253142,47265,-354724,1636549354.9778972,1636549354.971687,26
1006,0,143975,217480,364979,331964,463728,253075,47160,-354817,1636549354.9778996,1636549354.971687,26
1007,0,144167,218031,365475,332325,464009,253224,47176,-354793,1636549355,1636549354.971687,26
1008,0,144174,217973,365425,332267,463951,253177,47126,-354816,1636549354.9779117,1636549354.971687,26
1009,0,144171,217882,365331,332210,463923,253199,47210,-354806,1636549354.977912,1636549354.971687,26
1010,0,144133,217780,365261,332166,463921,253301,47473,-354703,1636549354.9800045,1636549355.042139,27
1011,0,144131,217789,365296,332192,463933,253299,47433,-354721,1636549354.9841957,1636549355.042139,27
1012,0,144167,217802,365249,332159,463913,253275,47391,-354734,1636549354.9841995,1636549355.042139,27
1013,0,144268,217983,365461,332347,464053,253358,47360,-354744,1636549354.988169,1636549355.042139,27
1014,0,144231,217915,365377,332285,463978,253260,47161,-354930,1636549354.9881713,1636549355.042139,27
1015,0,144263,217941,365414,332320,464003,253288,47155,-354877,1636549354.9921234,1636549355.042139,27
1016,0,144277,217963,365437,332315,464019,253335,47353,-354627,1636549354.9921257,1636549355.042139,27
1017,0,144163,217858,365340,332224,463979,253368,47598,-354606,1636549354.9999878,1636549355.042139,27
1018,0,144180,217823,365279,332179,463950,253357,47548,-354654,1636549354.9999945,1636549355.042139,27
1019,0,144194,217881,365323,332216,463964,253325,47441,-354607,1636549355.0000296,1636549355.042139,27
1020,0,144064,217693,365159,332043,463798,253156,47336,-354521,1636549355.0000305,1636549355.042139,27
1021,0,144030,217597,365080,331973,463722,253109,47280,-354651,1636549355,1636549355.042139,27
1022,0,144123,217719,365186,332092,463842,253196,47320,-354578,1636549355.0040824,1636549355.042139,27
1023,0,144243,217880,365318,332196,463929,253253,47353,-354527,1636549355.008576,1636549355.042139,27
1024,0,144159,217763,365223,332111,463839,253151,47249,-354689,1636549355.0085807,1636549355.042139,27
1025,0,144106,217710,365193,332074,463803,253131,47199,-354754,1636549355.0120351,1636549355.042139,27
1026,0,144152,217784,365266,332153,463888,253219,47274,-354728,1636549355.0120373,1636549355.042139,27
1027,0,144259,217879,365356,332253,463980,253301,47418,-354653,1636549355.016137,1636549355.042139,27
1028,0,144204,217715,365319,332195,463934,253277,47401,-354717,1636549355.0161397,1636549355.042139,27
1029,0,144132,217580,365184,332083,463837,253195,47253,-354940,1636549355.0203788,1636549355.042139,27
1030,0,144148,217839,365226,332124,463856,253192,47214,-355008,1636549355.0203807,1636549355.042139,27
1031,0,144214,217942,365344,332227,463966,253309,47299,-354760,1636549355.0247073,1636549355.042139,27
1032,0,144279,217813,365256,332144,463889,253224,47287,-354436,1636549355.0247135,1636549355.042139,27
1033,0,144291,217766,365222,332109,463853,253224,47331,-354344,1636549355.0410352,1636549355.042139,27
1034,0,144209,217759,365220,332098,463836,253194,47279,-354604,1636549355.0410388,1636549355.042139,27
1035,0,144153,217804,365266,332167,463915,253259,47323,-354656,1636549355.041056,1636549355.042139,27
1036,0,144151,217796,365242,332172,463926,253257,47309,-354688,1636549355.0410564,1636549355.042139,27
1037,0,144178,217751,365207,332125,463874,253206,47265,-354681,1636549355.0410604,1636549355.042139,27
1038,0,144190,217712,365153,332023,463780,253158,47236,-354696,1636549355.041061,1636549355.042139,27
1039,0,144134,217694,365158,332038,463784,253163,47193,-354797,1636549355.0465589,1636549355.042139,27
1040,0,144170,217772,365225,332104,463858,253239,47261,-354782,1636549355.0465643,1636549355.042139,27
1041,0,144138,217718,365165,332031,463783,253186,47228,-354799,1636549355.0471184,1636549355.042139,27
1042,0,144207,217728,365192,332062,463829,253239,47289,-354707,1636549355,1636549355.042139,27
1043,0,144273,217815,365269,332166,463914,253279,47325,-354734,1636549355.0622013,1636549355.109844,28
1044,0,144186,217731,365226,332111,463855,253241,47300,-354841,1636549355.0622036,1636549355.109844,28
1045,0,144177,217693,365221,332070,463828,253214,47233,-354862,1636549355.0622196,1636549355.109844,28
1046,0,144097,217423,364964,331864,463641,253037,47139,-354830,1636549355,1636549355.109844,28
1047,0,144143,217412,364933,331848,463637,253073,47246,-354696,1636549355.0663176,1636549355.109844,28
1048,0,144319,217844,365317,332174,463917,253298,47359,-354790,1636549355.0663235,1636549355.109844,28
1049,0,144363,218103,365551,332384,464114,253431,47421,-354809,1636549355.0683758,1636549355.109844,28
1050,0,144184,217821,365321,332176,463920,253242,47240,-354785,1636549355.0683787,1636549355.109844,28
1051,0,144056,217536,365009,331846,463610,252944,47008,-354675,1636549355.072299,1636549355.109844,28
1052,0,144075,217576,365018,331866,463642,252962,46983,-354861,1636549355.0723014,1636549355.109844,28
1053,0,144113,217718,365163,331994,463760,253083,47031,-355096,1636549355.0765057,1636549355.109844,28
1054,0,144093,217766,365276,332151,463906,253213,47104,-355004,1636549355.076508,1636549355.109844,28
1055,0,144176,217761,365240,332099,463861,253163,47260,-354625,1636549355.080099,1636549355.109844,28
1056,0,144180,217699,365175,332027,463782,253105,47253,-354471,1636549355.0801013,1636549355.109844,28
1057,0,144107,217651,365131,331981,463748,253103,47256,-354684,1636549355.084057,1636549355.109844,28
1058,0,144088,217636,365155,331980,463773,253145,47313,-354754,1636549355.0840597,1636549355.109844,28
1059,0,144219,217757,365261,332077,463878,253231,47343,-354722,1636549355.0889444,1636549355.109844,28
1060,0,144181,217738,365196,332049,463856,253198,47268,-354860,1636549355.0889468,1636549355.109844,28
1061,0,144163,217768,365306,332154,463926,253256,47221,-355039,1636549355.0927148,1636549355.109844,28
1062,0,144181,217678,365208,332091,463879,253209,47189,-354915,1636549355.092718,1636549355.109844,28
1063,0,144093,217582,365093,331961,463737,253068,47143,-354699,1636549355.095848,1636549355.109844,28
1064,0,144089,217583,365049,331895,463673,252986,47107,-354518,1636549355,1636549355.109844,28
1065,0,144033,217670,365143,331963,463754,253066,47181,-354707,1636549355.1008456,1636549355.109844,28
1066,0,144076,217743,365224,332058,463823,253142,47243,-354699,1636549355.1008613,1636549355.109844,28
1067,0,144063,217655,365114,331930,463680,253011,47128,-354779,1636549355.1040645,1636549355.109844,28
1068,0,144078,217645,365138,331949,463710,253019,47116,-354800,1636549355.104067,1636549355.109844,28
1069,0,144163,217652,365253,332084,463860,253154,47214,-354717,1636549355.108302,1636549355.109844,28
1070,0,144095,217501,365161,332021,463810,253116,47203,-354767,1636549355.108304,1636549355.109844,28
1071,0,144102,217684,365142,331991,463760,253078,47219,-354784,1636549355.112104,1636549355.109844,28
1072,0,144141,217813,365222,332052,463784,253103,47278,-354749,1636549355.1121092,1636549355.109844,28
1073,0,144198,217788,365273,332123,463853,253169,47299,-354703,1636549355.116541,1636549355.109844,28
1074,0,144140,217729,365233,332091,463821,253144,47225,-354790,1636549355.116546,1636549355.109844,28
1075,0,144209,217749,365254,332084,463824,253131,47105,-354865,1636549355.1283479,1636549355.178524,29
1076,0,144126,217641,365131,331991,463738,253040,47078,-354968,1636549355.128353,1636549355.178524,29
1077,0,144101,217605,365102,331953,463703,253015,47224,-354840,1636549355.1366265,1636549355.178524,29
1078,0,144180,217658,365147,331970,463712,253022,47263,-354614,1636549355.1366286,1636549355.178524,29
1079,0,144136,217737,365248,332068,463816,253091,47232,-354666,1636549355.1478784,1636549355.178524,29
1080,0,144134,217703,365206,332045,463804,253094,47204,-354764,1636549355.1478808,1636549355.178524,29
1081,0,144115,217623,365117,331986,463773,253103,47205,-354882,1636549355.1478944,1636549355.178524,29
1082,0,144108,217691,365196,332051,463824,253148,47221,-354896,1636549355.147895,1636549355.178524,29
1083,0,144133,217705,365181,331976,463718,253049,47154,-354772,1636549355.1478975,1636549355.178524,29
1084,0,144125,217674,365182,332004,463762,253086,47225,-354787,1636549355.147898,1636549355.178524,29
1085,0,144109,217593,365176,332069,463858,253198,47320,-354819,1636549355.1496177,1636549355.178524,29
1086,0,143993,217536,365109,331956,463731,253060,47176,-354893,1636549355,1636549355.178524,29
1087,0,143994,217558,365049,331896,463648,252948,47052,-354825,1636549355.1522825,1636549355.178524,29
1088,0,144076,217730,365148,331946,463672,252968,47054,-354942,1636549355.1522846,1636549355.178524,29
1089,0,144054,217771,365266,332084,463802,253083,47129,-355085,1636549355.158742,1636549355.178524,29
1090,0,144081,217770,365268,332128,463868,253155,47226,-354752,1636549355.158744,1636549355.178524,29
1091,0,144046,217703,365194,332036,463777,253050,47156,-354581,1636549355.1666665,1636549355.178524,29
1092,0,144094,217698,365192,332025,463779,253045,47246,-354365,1636549355.1666691,1636549355.178524,29
1093,0,144066,217662,365154,331985,463738,253032,47222,-354596,1636549355.166686,1636549355.178524,29
1094,0,144070,217670,365168,332031,463770,253076,47211,-354681,1636549355.1666863,1636549355.178524,29
1095,0,144135,217725,365249,332117,463871,253167,47274,-354641,1636549355.1679947,1636549355.178524,29
1096,0,144009,217702,365179,332015,463761,253052,47160,-354786,1636549355.1679964,1636549355.178524,29
1097,0,144039,217730,365197,332007,463768,253061,47204,-354776,1636549355.1726763,1636549355.178524,29
1098,0,144092,217751,365236,332054,463832,253110,47265,-354761,1636549355.1726804,1636549355.178524,29
1099,0,144049,217761,365276,332084,463853,253125,47227,-354812,1636549355.1913157,1636549355.178524,29
1100,0,144016,217708,365211,332012,463791,253048,47153,-354817,1636549355.1913178,1636549355.178524,29
1101,0,144120,217747,365246,332056,463826,253093,47181,-354670,1636549355.1913292,1636549355.178524,29
1102,0,144098,217736,365239,332080,463836,253079,47131,-354754,1636549355.1913297,1636549355.178524,29
1103,0,144186,217789,365290,332138,463901,253168,47238,-354705,1636549355.1913326,1636549355.178524,29
1104,0,144229,217784,365273,332119,463876,253168,47275,-354664,1636549355.191333,1636549355.178524,29
1105,0,144201,217785,365276,332114,463853,253150,47258,-354690,1636549355.191336,1636549355.178524,29
1106,0,144044,217681,365177,332018,463761,253073,47173,-354782,1636549355.1913362,1636549355.178524,29
1107,0,144042,217751,365283,332112,463883,253182,47245,-354778,1636549355.1918764,1636549355.178524,29
1108,0,144098,217745,365328,332166,463951,253232,47326,-354756,1636549355.1918786,1636549355.178524,29
1109,0,144229,217784,365273,332119,463876,253168,47275,-354664,1636549355.191333,1636549355.256672,30
1110,0,144201,217785,365276,332114,463853,253150,47258,-354690,1636549355.191336,1636549355.256672,30
1111,0,144044,217681,365177,332018,463761,253073,47173,-354782,1636549355.1913362,1636549355.256672,30
1112,0,144042,217751,365283,332112,463883,253182,47245,-354778,1636549355.1918764,1636549355.256672,30
1113,0,144098,217745,365328,332166,463951,253232,47326,-354756,1636549355.1918786,1636549355.256672,30
1114,0,144030,217542,365233,332085,463873,253159,47333,-354735,1636549355.1958756,1636549355.256672,30
1115,0,144024,217523,365101,331939,463726,253024,47183,-354733,1636549355.1958776,1636549355.256672,30
1116,0,143999,217736,365163,331942,463698,252967,47096,-354819,1636549355.2122648,1636549355.256672,30
1117,0,144021,217664,365144,331954,463713,253010,47103,-354844,1636549355.2122717,1636549355.256672,30
1118,0,144051,217653,365146,331963,463753,253064,47144,-354821,1636549355.2123003,1636549355.256672,30
1119,0,144146,217726,365198,332009,463798,253094,47244,-354706,1636549355.2123008,1636549355.256672,30
1120,0,144129,217792,365269,332086,463866,253156,47288,-354697,1636549355.212304,1636549355.256672,30
1121,0,144090,217814,365302,332135,463892,253183,47264,-354821,1636549355.2123044,1636549355.256672,30
1122,0,144101,217833,365299,332118,463873,253178,47223,-354951,1636549355.225067,1636549355.256672,30
1123,0,144091,217801,365278,332096,463868,253176,47201,-354954,1636549355.2250688,1636549355.256672,30
1124,0,143954,217524,365054,331896,463692,252996,47054,-354983,1636549355,1636549355.256672,30
1125,0,143939,217324,364875,331735,463590,252889,47054,-354897,1636549355.2309833,1636549355.256672,30
1126,0,143988,217568,365095,331944,463748,253018,47101,-354779,1636549355.2309988,1636549355.256672,30
1127,0,144116,217884,365318,332068,463804,253074,47168,-354477,1636549355.2309992,1636549355.256672,30
1128,0,144157,217822,365292,332077,463849,253158,47297,-354591,1636549355.2310019,1636549355.256672,30
1129,0,144106,217808,365290,332074,463864,253161,47240,-354904,1636549355.231002,1636549355.256672,30
1130,0,144180,217867,365341,332132,463918,253184,47255,-354774,1636549355.2351708,1636549355.256672,30
1131,0,144020,217756,365242,332033,463813,253079,47185,-354618,1636549355.235173,1636549355.256672,30
1132,0,144017,217663,365154,331934,463726,253008,47175,-354470,1636549355.2413688,1636549355.256672,30
1133,0,144010,217630,365176,331986,463783,253073,47164,-354579,1636549355.2413895,1636549355.256672,30
1134,0,143988,217558,365076,331944,463758,253043,47143,-354716,1636549355.2475348,1636549355.256672,30
1135,0,144015,217714,365155,331956,463721,253012,47168,-354709,1636549355.247537,1636549355.256672,30
1136,0,144104,217819,365279,332051,463788,253063,47184,-354660,1636549355.2475505,1636549355.256672,30
1137,0,144065,217748,365227,332002,463742,252977,46997,-354781,1636549355.247551,1636549355.256672,30
1138,0,144152,217859,365349,332139,463878,253109,47052,-354747,1636549355.2475538,1636549355.256672,30
1139,0,144137,217820,365291,332096,463858,253161,47209,-354717,1636549355.247554,1636549355.256672,30
1140,0,144118,217719,365199,332035,463828,253218,47449,-354646,1636549355.250884,1636549355.256672,30
1141,0,144021,217669,365158,331998,463792,253169,47342,-354765,1636549355.2508879,1636549355.256672,30
1142,0,144096,217694,365190,331998,463789,253140,47311,-354648,1636549355.2518332,1636549355.256672,30
1143,0,143961,217650,365183,331998,463779,253101,47252,-354792,1636549355.2518344,1636549355.256672,30
1144,0,143949,217751,365243,332056,463819,253137,47238,-354716,1636549355,1636549355.256672,30
1145,0,144001,217763,365219,332024,463786,253099,47193,-354679,1636549355.2556412,1636549355.256672,30
1146,0,144003,217749,365196,332006,463769,253086,47173,-354658,1636549355.261557,1636549355.256672,30
1147,0,143969,217675,365131,331953,463729,253028,47135,-354730,1636549355,1636549355.256672,30
1148,0,144058,217733,365195,332021,463803,253111,47193,-354716,1636549355,1636549355.325767,31
1149,0,143944,217744,365224,332009,463786,253078,47155,-354895,1636549355.2681625,1636549355.325767,31
1150,0,143861,217726,365218,332034,463800,253094,47166,-354908,1636549355.2717967,1636549355.325767,31
1151,0,143896,217718,365241,332059,463829,253095,47154,-354943,1636549355.271799,1636549355.325767,31
1152,0,143999,217779,365414,332251,464031,253291,47274,-355102,1636549355.2763498,1636549355.325767,31
1153,0,143910,217658,365289,332161,463949,253240,47188,-355191,1636549355.2763534,1636549355.325767,31
1154,0,143954,217784,365203,332013,463791,253079,47112,-354681,1636549355.2797213,1636549355.325767,31
1155,0,143887,217578,364989,331761,463526,252818,47058,-354304,1636549355.2797244,1636549355.325767,31
1156,0,143901,217574,365080,331912,463672,252943,47114,-354519,1636549355.2840457,1636549355.325767,31
1157,0,144018,217738,365239,332069,463829,253104,47179,-354709,1636549355.2840507,1636549355.325767,31
1158,0,144076,217801,365287,332098,463854,253147,47227,-354841,1636549355.288197,1636549355.325767,31
1159,0,143913,217649,365139,331949,463728,253029,47169,-354832,1636549355.2881997,1636549355.325767,31
1160,0,143968,217664,365160,331980,463743,253010,47099,-354591,1636549355.2920673,1636549355.325767,31
1161,0,144138,217829,365304,332102,463849,253074,47050,-354547,1636549355.2920697,1636549355.325767,31
1162,0,144041,217759,365218,332021,463775,252992,47020,-354749,1636549355.2957876,1636549355.325767,31
1163,0,143960,217662,365121,331924,463716,252973,47199,-354702,1636549355,1636549355.325767,31
1164,0,143913,217658,365166,331948,463753,253066,47351,-354679,1636549355.3027096,1636549355.325767,31
1165,0,143901,217528,365076,331848,463679,253064,47395,-354630,1636549355.302712,1636549355.325767,31
1166,0,143821,217336,364904,331733,463604,252978,47254,-354731,1636549355.304095,1636549355.325767,31
1167,0,144011,217779,365296,332076,463883,253160,47275,-354723,1636549355.3040972,1636549355.325767,31
1168,0,144127,217979,365460,332189,463954,253213,47316,-354637,1636549355.3077197,1636549355.325767,31
1169,0,143911,217617,365120,331889,463697,252996,47175,-354762,1636549355.307722,1636549355.325767,31
1170,0,143903,217529,365007,331834,463665,252970,47150,-354789,1636549355.3119316,1636549355.325767,31
1171,0,143960,217689,365185,332016,463828,253108,47200,-354812,1636549355.3119352,1636549355.325767,31
1172,0,143958,217815,365309,332086,463871,253112,47159,-354861,1636549355.3159409,1636549355.325767,31
1173,0,143998,217701,365218,332011,463793,253053,47146,-354755,1636549355.315946,1636549355.325767,31
1174,0,143884,217601,365139,331938,463741,252968,47059,-354802,1636549355.3197184,1636549355.325767,31
1175,0,143901,217752,365234,332028,463828,253043,47092,-354811,1636549355.3197207,1636549355.325767,31
1176,0,144058,217925,365398,332165,463946,253161,47218,-354727,1636549355.3236825,1636549355.325767,31
1177,0,144095,217921,365419,332188,463974,253226,47319,-354734,1636549355.323684,1636549355.325767,31
1178,0,144093,217869,365365,332143,463965,253247,47368,-354712,1636549355.3277395,1636549355.325767,31
1179,0,144035,217672,365202,332013,463838,253123,47238,-354713,1636549355.327742,1636549355.325767,31
1180,0,143998,217616,365150,331941,463754,253018,47173,-354694,1636549355.3328786,1636549355.325767,31
1181,0,143971,217651,365119,331894,463729,252983,47164,-354753,1636549355.332883,1636549355.325767,31
1182,0,143981,217703,365202,331952,463769,253008,47105,-354882,1636549355.3501656,1636549355.378946,32
1183,0,143923,217854,365384,332161,463970,253193,47111,-355212,1636549355.3501673,1636549355.378946,32
1184,0,144044,217968,365492,332279,464089,253303,47181,-355130,1636549355.350175,1636549355.378946,32
1185,0,144027,217819,365338,332123,463948,253206,47235,-354694,1636549355.3501754,1636549355.378946,32
1186,0,143963,217547,365089,331855,463703,253013,47314,-354186,1636549355.3519895,1636549355.378946,32
