Sample_num,Task_number,EMG1,EMG2,EMG3,EMG4,EMG5,EMG6,EMG7,EMG8,Timestamp,Video_timestamp,Angle_sample
0,0,336961,189860,72790,146641,284191,200008,10540,-438527,1636548399.5273576,1636548399.583093,0
1,0,336936,189816,72796,146653,284272,200073,10606,-438504,1636548399.5273595,1636548399.583093,0
2,0,336873,189723,72709,146543,284211,200009,10553,-438572,1636548399.5382712,1636548399.583093,0
3,0,336976,189809,72769,146594,284247,200020,10596,-438491,1636548399.538273,1636548399.583093,0
4,0,336998,189848,72791,146684,284246,199988,10578,-438498,1636548399.538286,1636548399.583093,0
5,0,336939,189802,72731,146651,284213,199951,10524,-438555,1636548399.5382867,1636548399.583093,0
6,0,336999,189874,72773,146683,284266,199984,10558,-438489,1636548399.5454237,1636548399.583093,0
7,0,337041,189908,72787,146669,284234,199947,10487,-438506,1636548399.5454264,1636548399.583093,0
8,0,337043,189904,72861,146785,284408,200175,10654,-438432,1636548399.545441,1636548399.583093,0
9,0,336973,189806,72761,146658,284231,199976,10578,-438462,1636548399.5454412,1636548399.583093,0
10,0,336969,189804,72743,146633,284206,199989,10580,-438493,1636548399.5476885,1636548399.583093,0
11,0,336954,189794,72731,146635,284210,200001,10574,-438519,1636548399.547691,1636548399.583093,0
12,0,336914,189760,72653,146495,284137,199962,10528,-438578,1636548399.5517273,1636548399.583093,0
13,0,336963,189809,72622,145818,283956,199943,10546,-438556,1636548399.551729,1636548399.583093,0
14,0,337014,189873,72648,145482,283916,199978,10606,-438498,1636548399.5679991,1636548399.583093,0
15,0,336946,189813,72691,146695,284186,199994,10583,-438561,1636548399.5680077,1636548399.583093,0
16,0,336908,189801,72776,147521,284452,200045,10583,-438569,1636548399.5680466,1636548399.583093,0
17,0,336878,189763,72694,146851,284244,199988,10546,-438564,1636548399.5680475,1636548399.583093,0
18,0,336938,189799,72698,146774,284231,200012,10588,-438512,1636548399.568053,1636548399.583093,0
19,0,336904,189739,72620,146684,284166,199956,10533,-438581,1636548399.568054,1636548399.583093,0
20,0,336933,189738,72605,146675,284192,199963,10533,-438593,1636548399.568058,1636548399.583093,0
21,0,336873,189651,72556,146621,284132,199911,10479,-438669,1636548399.5680592,1636548399.583093,0
22,0,336847,189606,72541,146598,284130,199879,10463,-438706,1636548399.5834703,1636548399.583093,0
23,0,336879,189629,72580,146616,284154,199902,10504,-438661,1636548399.5834725,1636548399.583093,0
24,0,336918,189666,72661,146689,284234,199993,10560,-438601,1636548399.5834837,1636548399.583093,0
25,0,336867,189616,72633,146631,284185,199934,10499,-438661,1636548399.583484,1636548399.583093,0
26,0,336871,189603,72633,146588,284146,199904,10473,-438662,1636548399.5834866,1636548399.583093,0
27,0,336878,189584,72646,146582,284169,199946,10493,-438657,1636548399.5834868,1636548399.583093,0
28,0,337054,189755,72740,146364,284125,199954,10536,-438564,1636548399.5834894,1636548399.583093,0
29,0,336898,189584,72578,146012,283973,199841,10426,-438701,1636548400,1636548399.583093,0
30,0,336853,189529,72584,146496,284101,199871,10432,-438701,1636548399.5873911,1636548399.583093,0
31,0,336787,189452,72562,146878,284180,199833,10374,-438762,1636548399.587394,1636548399.583093,0
32,0,336827,189484,72571,146623,284111,199818,10382,-438739,1636548399.5912364,1636548399.583093,0
33,0,336913,189558,72663,146626,284163,199897,10465,-438645,1636548399.5912402,1636548399.583093,0
34,0,336827,189484,72571,146623,284111,199818,10382,-438739,1636548399.5912364,1636548399.773966,1
35,0,336913,189558,72663,146626,284163,199897,10465,-438645,1636548399.5912402,1636548399.773966,1
36,0,336844,189479,72622,146584,284126,199870,10425,-438681,1636548400,1636548399.773966,1
37,0,336867,189516,72663,146596,284154,199888,10443,-438682,1636548399.5967522,1636548399.773966,1
38,0,336881,189573,72718,146622,284182,199925,10489,-438663,1636548399.5992188,1636548399.773966,1
39,0,336932,189639,72794,146669,284239,199987,10551,-438574,1636548399.5992205,1636548399.773966,1
40,0,336966,189639,72798,146672,284243,199989,10553,-438540,1636548399.608608,1636548399.773966,1
41,0,336948,189603,72732,146645,284206,199959,10525,-438604,1636548399.6086113,1636548399.773966,1
42,0,336954,189606,72716,146624,284199,199991,10570,-438586,1636548399.6089191,1636548399.773966,1
43,0,336883,189518,72659,146588,284190,199983,10559,-438621,1636548399.6089249,1636548399.773966,1
44,0,336855,189485,72643,146534,284118,199901,10494,-438647,1636548399.6112645,1636548399.773966,1
45,0,336868,189506,72604,146454,284009,199774,10463,-438622,1636548399.611267,1636548399.773966,1
46,0,336836,189466,72601,146516,284081,199837,10457,-438643,1636548399.6150296,1636548399.773966,1
47,0,336816,189433,72593,146590,284132,199878,10486,-438686,1636548399.6150317,1636548399.773966,1
48,0,336801,189406,72546,146526,284089,199851,10458,-438704,1636548400,1636548399.773966,1
49,0,336934,189521,72632,146576,284123,199874,10504,-438614,1636548399.6215122,1636548399.773966,1
50,0,337003,189579,72671,146603,284142,199888,10530,-438578,1636548399.6248307,1636548399.773966,1
51,0,336911,189516,72612,146558,284109,199852,10472,-438678,1636548399.6248329,1636548399.773966,1
52,0,336845,189496,72586,146585,284126,199859,10461,-438710,1636548399.6270354,1636548399.773966,1
53,0,336863,189523,72581,146564,284078,199799,10463,-438679,1636548399.6270375,1636548399.773966,1
54,0,336821,189476,72540,146537,284056,199791,10464,-438720,1636548399.6339853,1636548399.773966,1
55,0,336771,189416,72466,146471,283980,199711,10378,-438791,1636548399.6340337,1636548399.773966,1
56,0,336824,189476,72501,146513,284013,199753,10401,-438750,1636548399.6425552,1636548399.773966,1
57,0,336769,189444,72459,146498,283999,199756,10418,-438770,1636548399.642562,1636548399.773966,1
58,0,336751,189460,72481,146556,284089,199854,10510,-438717,1636548399.6425776,1636548399.773966,1
59,0,336785,189511,72511,146555,284088,199838,10491,-438691,1636548399.6425784,1636548399.773966,1
60,0,336777,189489,72516,146219,284024,199876,10533,-438667,1636548399.6439216,1636548399.773966,1
61,0,336814,189512,72402,145324,283629,199626,10372,-438694,1636548399.6439257,1636548399.773966,1
62,0,336764,189456,72423,145709,283729,199654,10388,-438717,1636548399.6519005,1636548399.773966,1
63,0,336746,189441,72588,147294,284132,199681,10376,-438742,1636548399.6519032,1636548399.773966,1
64,0,336804,189484,72577,146928,284028,199605,10338,-438759,1636548399.6519148,1636548399.773966,1
65,0,336773,189444,72566,146658,284071,199734,10443,-438743,1636548399.6519156,1636548399.773966,1
66,0,336658,189348,72508,146593,284017,199702,10402,-438791,1636548399.6552095,1636548399.773966,1
67,0,336712,189403,72500,146530,283918,199620,10333,-438796,1636548399.655216,1636548399.773966,1
68,0,336783,189492,72548,146568,283949,199644,10353,-438768,1636548399.6592395,1636548399.773966,1
69,0,336840,189536,72599,146676,284063,199747,10450,-438686,1636548399.6592429,1636548399.773966,1
70,0,336921,189578,72628,146696,284093,199775,10493,-438625,1636548399.6633177,1636548399.773966,1
71,0,336838,189524,72558,146619,284016,199710,10436,-438701,1636548399.6633236,1636548399.773966,1
72,0,336729,189418,72456,146534,283926,199629,10356,-438799,1636548399.6678364,1636548399.773966,1
73,0,336726,189408,72441,146531,283921,199628,10371,-438812,1636548399.667838,1636548399.773966,1
74,0,336793,189437,72488,146586,283994,199683,10423,-438771,1636548399.671013,1636548399.773966,1
75,0,336879,189484,72558,146665,284063,199744,10468,-438707,1636548399.671015,1636548399.773966,1
76,0,336794,189409,72508,146603,283964,199629,10376,-438771,1636548399.6758797,1636548399.773966,1
77,0,336673,189323,72477,146527,283964,199660,10421,-438799,1636548399.6758854,1636548399.773966,1
78,0,336735,189345,72482,146213,283871,199616,10434,-438756,1636548399.6826901,1636548399.773966,1
79,0,336774,189329,72492,146115,283853,199636,10443,-438733,1636548399.682696,1636548399.773966,1
80,0,336802,189303,72538,146744,284015,199698,10499,-438720,1636548399.6836832,1636548399.773966,1
81,0,336687,189163,72468,146898,284021,199609,10402,-438833,1636548399.6836843,1636548399.773966,1
82,0,336726,189188,72509,146698,284025,199649,10478,-438761,1636548399.699164,1636548399.773966,1
83,0,336706,189156,72481,146610,283965,199588,10416,-438798,1636548399.6991765,1636548399.773966,1
84,0,336716,189153,72509,146578,283954,199593,10424,-438755,1636548399.6992402,1636548399.773966,1
85,0,336756,189188,72540,146594,283988,199634,10482,-438711,1636548399.6992416,1636548399.773966,1
86,0,336716,189136,72499,146628,283969,199584,10416,-438787,1636548399.6992528,1636548399.773966,1
87,0,336722,189145,72503,146641,283981,199592,10402,-438778,1636548399.6992538,1636548399.773966,1
88,0,336740,189202,72514,146653,284016,199624,10426,-438722,1636548399.699898,1636548399.773966,1
89,0,336869,189300,72594,146759,284099,199719,10515,-438622,1636548400,1636548399.773966,1
90,0,336944,189354,72664,146823,284170,199786,10568,-438564,1636548399.703154,1636548399.773966,1
91,0,336861,189264,72586,146771,284147,199753,10538,-438632,1636548399.7031565,1636548399.773966,1
92,0,336828,189221,72583,146788,284188,199778,10536,-438676,1636548399.7075708,1636548399.773966,1
93,0,336966,189334,72641,146783,284134,199708,10494,-438636,1636548399.7075753,1636548399.773966,1
94,0,336944,189308,72619,146757,284084,199618,10501,-438630,1636548399.711762,1636548399.773966,1
95,0,336877,189220,72583,146763,284122,199669,10531,-438676,1636548399.7117712,1636548399.773966,1
96,0,336853,189183,72591,146754,284119,199672,10538,-438676,1636548399.7152653,1636548399.773966,1
97,0,336851,189190,72605,146758,284121,199683,10524,-438684,1636548399.715272,1636548399.773966,1
98,0,336869,189189,72616,146763,284129,199680,10514,-438669,1636548399.7205813,1636548399.773966,1
99,0,336883,189203,72640,146783,284141,199659,10501,-438669,1636548399.7205863,1636548399.773966,1
100,0,336849,189210,72631,146789,284164,199651,10501,-438673,1636548399.7231193,1636548399.773966,1
101,0,336738,189106,72525,146689,284073,199569,10404,-438782,1636548399.7231212,1636548399.773966,1
102,0,336793,189141,72574,146744,284108,199630,10441,-438729,1636548399.7269924,1636548399.773966,1
103,0,336911,189217,72671,146846,284179,199691,10510,-438647,1636548399.7269957,1636548399.773966,1
104,0,336904,189151,72631,146801,284134,199659,10481,-438657,1636548399.7332675,1636548399.773966,1
105,0,336941,189149,72634,146818,284136,199668,10499,-438635,1636548399.7332788,1636548399.773966,1
106,0,336966,189160,72667,146859,284158,199683,10518,-438645,1636548399.7350647,1636548399.773966,1
107,0,336954,189167,72659,146859,284149,199683,10501,-438651,1636548399.7350671,1636548399.773966,1
108,0,336955,189178,72666,146877,284162,199687,10503,-438629,1636548399.7421675,1636548399.773966,1
109,0,336993,189197,72701,146899,284209,199727,10544,-438582,1636548399.7421708,1636548399.773966,1
110,0,337096,189289,72765,146587,284195,199823,10646,-438476,1636548399.7535815,1636548399.773966,1
111,0,337110,189276,72703,145859,284018,199794,10640,-438486,1636548399.7535892,1636548399.773966,1
112,0,337071,189228,72724,146291,284079,199754,10596,-438526,1636548399.7536252,1636548399.773966,1
113,0,336917,189065,72744,147764,284418,199759,10524,-438641,1636548399.7536263,1636548399.773966,1
114,0,336982,189089,72714,147374,284348,199758,10557,-438586,1636548399.753631,1636548399.773966,1
115,0,337012,189126,72684,147064,284229,199698,10530,-438593,1636548399.7536314,1636548399.773966,1
116,0,337031,189129,72696,147041,284231,199721,10593,-438565,1636548399.7593098,1636548399.773966,1
117,0,337001,189039,72654,147000,284200,199694,10531,-438611,1636548399.759313,1636548399.773966,1
118,0,336988,189003,72694,147043,284219,199711,10506,-438646,1636548399.7612307,1636548399.773966,1
119,0,337048,189056,72718,147043,284206,199724,10553,-438603,1636548399.7612321,1636548399.773966,1
120,0,337094,189118,72791,147123,284319,199825,10651,-438536,1636548399.764703,1636548399.773966,1
121,0,336949,188986,72676,147031,284267,199777,10581,-438656,1636548399.764711,1636548399.773966,1
122,0,336989,189069,72713,147055,284289,199808,10616,-438604,1636548399.7669969,1636548399.773966,1
123,0,336977,189033,72661,146893,284243,199798,10596,-438610,1636548399.7669992,1636548399.773966,1
124,0,336978,188987,72613,146558,284182,199782,10600,-438574,1636548399.7714367,1636548399.773966,1
125,0,337064,189076,72656,146657,284131,199708,10561,-438576,1636548399.7714508,1636548399.773966,1
126,0,337018,189059,72664,147265,284236,199686,10503,-438659,1636548399.775416,1636548399.773966,1
127,0,336959,189036,72647,147133,284253,199719,10538,-438653,1636548399.7754197,1636548399.773966,1
128,0,336866,188958,72568,146945,284220,199744,10519,-438696,1636548399.7790456,1636548399.773966,1
129,0,336895,189013,72617,147046,284264,199769,10528,-438676,1636548399.7790496,1636548399.773966,1
130,0,336866,188958,72568,146945,284220,199744,10519,-438696,1636548399.7790456,1636548399.836435,2
131,0,336895,189013,72617,147046,284264,199769,10528,-438676,1636548399.7790496,1636548399.836435,2
132,0,337028,189110,72724,147163,284344,199863,10631,-438571,1636548399.7835128,1636548399.836435,2
133,0,336996,189065,72676,147093,284293,199820,10611,-438595,1636548399.7835166,1636548399.836435,2
134,0,336910,188970,72594,147014,284247,199754,10551,-438652,1636548399.787074,1636548399.836435,2
135,0,336893,188961,72573,146999,284289,199773,10544,-438631,1636548399.7870774,1636548399.836435,2
136,0,336941,189019,72663,147094,284353,199872,10616,-438547,1636548399.7912273,1636548399.836435,2
137,0,336925,188983,72634,147041,284286,199811,10575,-438567,1636548399.7912295,1636548399.836435,2
138,0,336915,188959,72619,147011,284261,199758,10542,-438586,1636548399.7952547,1636548399.836435,2
139,0,336913,188935,72641,147028,284307,199790,10574,-438579,1636548399.7952585,1636548399.836435,2
140,0,337011,189015,72735,147094,284409,199882,10650,-438504,1636548399.7995787,1636548399.836435,2
141,0,336943,188972,72699,147036,284396,199861,10619,-438535,1636548399.7995868,1636548399.836435,2
142,0,337121,189151,72799,147088,284391,199862,10660,-438415,1636548399.8041844,1636548399.836435,2
143,0,337019,189071,72713,147019,284308,199773,10583,-438502,1636548399.8041863,1636548399.836435,2
144,0,336966,189033,72686,147016,284319,199795,10583,-438521,1636548399.8073456,1636548399.836435,2
145,0,337014,189050,72720,147059,284360,199868,10634,-438467,1636548399.8073473,1636548399.836435,2
146,0,336944,188965,72668,147003,284304,199829,10590,-438531,1636548399.8112512,1636548399.836435,2
147,0,336924,188938,72633,146978,284288,199804,10576,-438546,1636548399.8112555,1636548399.836435,2
148,0,336929,188946,72623,146951,284244,199750,10552,-438564,1636548399.8155377,1636548399.836435,2
149,0,336974,188996,72686,147011,284303,199809,10597,-438519,1636548399.8155437,1636548399.836435,2
150,0,336940,188936,72641,146991,284288,199794,10580,-438541,1636548399.819862,1636548399.836435,2
151,0,336869,188874,72579,146933,284253,199760,10510,-438621,1636548399.819864,1636548399.836435,2
152,0,336888,188906,72613,147003,284324,199830,10566,-438584,1636548399.841832,1636548399.836435,2
153,0,336829,188832,72509,146896,284201,199706,10475,-438649,1636548399.8418388,1636548399.836435,2
154,0,336910,188937,72588,146953,284216,199716,10502,-438569,1636548399.8418593,1636548399.836435,2
155,0,336844,188904,72579,146969,284243,199719,10472,-438593,1636548400,1636548399.836435,2
156,0,336828,188890,72566,146984,284268,199714,10478,-438573,1636548399.841864,1636548399.836435,2
157,0,336879,188886,72493,146899,284175,199654,10452,-438562,1636548399.8418646,1636548399.836435,2
158,0,336889,188908,72477,146877,284167,199671,10467,-438563,1636548399.8418677,1636548399.836435,2
159,0,336941,188976,72546,146982,284273,199766,10547,-438496,1636548399.8418684,1636548399.836435,2
160,0,336861,188927,72455,146821,284166,199678,10433,-438576,1636548399.8463721,1636548399.914574,3
161,0,336949,189028,72501,146243,284045,199718,10504,-438480,1636548399.8487148,1636548399.914574,3
162,0,336952,189014,72430,145770,283932,199706,10522,-438486,1636548399.8487172,1636548399.914574,3
163,0,336868,188893,72440,146826,284116,199674,10468,-438554,1636548399.8508546,1636548399.914574,3
164,0,336824,188832,72498,147770,284354,199663,10407,-438632,1636548399.8508568,1636548399.914574,3
165,0,336887,188852,72452,146963,284173,199682,10434,-438591,1636548399.8667488,1636548399.914574,3
166,0,336891,188861,72409,146524,284071,199696,10445,-438577,1636548399.8667555,1636548399.914574,3
167,0,336809,188791,72351,146662,284036,199639,10378,-438652,1636548399.8667948,1636548399.914574,3
168,0,336806,188761,72416,147319,284216,199681,10365,-438678,1636548399.8667955,1636548399.914574,3
169,0,336903,188816,72488,147236,284328,199842,10488,-438566,1636548399.8667989,1636548399.914574,3
170,0,336875,188793,72426,147034,284235,199776,10451,-438594,1636548399.866799,1636548399.914574,3
171,0,336918,188799,72424,146959,284186,199726,10467,-438549,1636548399.8670194,1636548399.914574,3
172,0,336921,188781,72426,146909,284159,199694,10452,-438554,1636548399.8670204,1636548399.914574,3
173,0,336849,188726,72378,146941,284153,199670,10389,-438609,1636548399.8728528,1636548399.914574,3
174,0,336874,188751,72425,147035,284231,199757,10446,-438552,1636548399.8728547,1636548399.914574,3
175,0,336779,188637,72317,146919,284163,199705,10416,-438600,1636548399.8754952,1636548399.914574,3
176,0,336958,188793,72420,146979,284184,199697,10481,-438472,1636548399.8754976,1636548399.914574,3
177,0,337058,188935,72531,147074,284314,199826,10474,-438457,1636548399.8804445,1636548399.914574,3
178,0,337048,188964,72545,147068,284261,199753,10476,-438437,1636548399.8804467,1636548399.914574,3
179,0,336908,188826,72476,147063,284329,199852,10564,-438449,1636548399.8832183,1636548399.914574,3
180,0,336785,188699,72348,146941,284222,199771,10443,-438584,1636548400,1636548399.914574,3
181,0,336847,188761,72378,146947,284186,199714,10422,-438557,1636548399.8896303,1636548399.914574,3
182,0,336964,188865,72431,147003,284210,199713,10473,-438464,1636548399.8896327,1636548399.914574,3
183,0,336939,188837,72363,146919,284144,199654,10448,-438492,1636548400,1636548399.914574,3
184,0,336953,188889,72434,147016,284238,199782,10522,-438471,1636548399.8913429,1636548399.914574,3
185,0,336944,188882,72477,147096,284288,199831,10542,-438474,1636548400,1636548399.914574,3
186,0,336868,188801,72371,147000,284183,199733,10456,-438552,1636548399.895282,1636548399.914574,3
187,0,336899,188866,72403,147043,284218,199770,10488,-438521,1636548399.899393,1636548399.914574,3
188,0,336939,188944,72449,147101,284284,199846,10536,-438479,1636548399.8994071,1636548399.914574,3
189,0,336977,188984,72478,147138,284331,199884,10580,-438453,1636548399.9031374,1636548399.914574,3
190,0,336894,188868,72374,147061,284250,199816,10507,-438562,1636548399.9031408,1636548399.914574,3
191,0,336911,188896,72404,147097,284287,199851,10535,-438554,1636548399.9068248,1636548399.914574,3
192,0,337009,188994,72478,147143,284297,199862,10569,-438471,1636548399.906826,1636548399.914574,3
193,0,337029,188991,72429,147099,284219,199772,10523,-438472,1636548399.911052,1636548399.914574,3
194,0,336869,188847,72306,147025,284161,199719,10434,-438598,1636548399.911056,1636548399.914574,3
195,0,336924,188873,72358,147095,284227,199783,10496,-438553,1636548399.9152927,1636548399.914574,3
196,0,337037,188955,72426,147164,284301,199858,10574,-438468,1636548399.915295,1636548399.914574,3
197,0,336973,188905,72332,147123,284259,199839,10541,-438518,1636548399.9217327,1636548399.914574,3
198,0,337040,188973,72350,147147,284271,199855,10556,-438492,1636548399.9217377,1636548399.914574,3
199,0,337027,188992,72304,147158,284288,199876,10559,-438527,1636548399.9268515,1636548399.983977,4
200,0,336974,188946,72229,147103,284213,199809,10503,-438597,1636548399.926854,1636548399.983977,4
201,0,336941,188916,72170,147070,284193,199780,10458,-438632,1636548399.931363,1636548399.983977,4
202,0,336945,188928,72178,147091,284203,199795,10473,-438617,1636548399.9313722,1636548399.983977,4
203,0,336981,188962,72221,147125,284235,199834,10515,-438577,1636548399.9349482,1636548399.983977,4
204,0,336918,188893,72159,147046,284179,199762,10450,-438653,1636548399.9349525,1636548399.983977,4
205,0,336916,188892,72156,147038,284183,199748,10428,-438655,1636548399.9390402,1636548399.983977,4
206,0,336901,188903,72178,147069,284251,199808,10479,-438619,1636548399.9390426,1636548399.983977,4
207,0,336977,188982,72264,147172,284349,199914,10566,-438532,1636548399.946416,1636548399.983977,4
208,0,336993,188967,72194,147076,284216,199762,10446,-438597,1636548399.946419,1636548399.983977,4
209,0,337081,189056,72269,147133,284238,199758,10486,-438511,1636548399.9517164,1636548399.983977,4
210,0,336946,188944,72178,147058,284259,199814,10513,-438576,1636548399.9517183,1636548399.983977,4
211,0,336984,188972,72158,146786,284229,199815,10539,-438556,1636548399.9517312,1636548399.983977,4
212,0,337069,189039,72190,146686,284244,199842,10598,-438514,1636548399.9517317,1636548399.983977,4
213,0,337046,189001,72198,147174,284316,199831,10577,-438555,1636548399.9553053,1636548399.983977,4
214,0,337045,189023,72239,147087,284288,199814,10549,-438546,1636548399.9553092,1636548399.983977,4
215,0,337031,189014,72133,146081,284019,199771,10530,-438558,1636548399.9591796,1636548399.983977,4
216,0,337102,189051,72169,146479,284129,199824,10545,-438525,1636548399.959182,1636548399.983977,4
217,0,337081,189014,72296,147972,284521,199884,10538,-438552,1636548399.9655905,1636548399.983977,4
218,0,337004,188927,72237,147580,284435,199856,10484,-438624,1636548399.965596,1636548399.983977,4
219,0,337058,189024,72303,147436,284470,199933,10581,-438552,1636548399.9670238,1636548399.983977,4
220,0,337070,189088,72341,147391,284463,199933,10594,-438559,1636548399.9670255,1636548399.983977,4
221,0,337047,189086,72321,147355,284448,199929,10605,-438562,1636548399.9708862,1636548399.983977,4
222,0,337033,189071,72254,147285,284359,199867,10562,-438572,1636548399.9708896,1636548399.983977,4
223,0,337073,189114,72288,147327,284398,199921,10609,-438524,1636548399.9752946,1636548399.983977,4
224,0,337071,189124,72306,147353,284439,199963,10624,-438503,1636548399.9752982,1636548399.983977,4
225,0,337068,189110,72281,147343,284432,199966,10621,-438501,1636548399.9796317,1636548399.983977,4
226,0,337016,189078,72248,147308,284411,199946,10583,-438554,1636548399.979637,1636548399.983977,4
227,0,337009,189056,72274,147373,284529,200061,10676,-438498,1636548399.9832327,1636548399.983977,4
228,0,337007,189054,72233,147288,284419,199951,10596,-438512,1636548399.9832346,1636548399.983977,4
229,0,337028,189044,72242,147274,284401,199924,10581,-438524,1636548399.9873788,1636548399.983977,4
230,0,337052,189046,72263,147302,284430,199958,10607,-438513,1636548399.9873848,1636548399.983977,4
231,0,337059,189061,72278,147303,284428,199929,10609,-438501,1636548399.9909873,1636548399.983977,4
232,0,336968,188964,72171,147191,284326,199841,10521,-438589,1636548399.990992,1636548399.983977,4
233,0,336964,188971,72138,147178,284324,199852,10514,-438596,1636548399.994721,1636548400.068937,5
234,0,337011,189078,72194,147222,284357,199848,10524,-438557,1636548399.9947224,1636548400.068937,5
235,0,337063,189136,72223,147244,284399,199869,10591,-438497,1636548399.999256,1636548400.068937,5
236,0,337048,189114,72191,147239,284436,199910,10578,-438554,1636548399.9992623,1636548400.068937,5
237,0,337129,189219,72284,147317,284499,200001,10680,-438461,1636548400.0025964,1636548400.068937,5
238,0,337064,189155,72238,147271,284438,199945,10612,-438522,1636548400.0025992,1636548400.068937,5
239,0,336874,188972,72125,147210,284436,199966,10574,-438641,1636548400.006828,1636548400.068937,5
240,0,337086,189128,72180,147204,284384,199918,10570,-438532,1636548400.0068307,1636548400.068937,5
241,0,337059,189106,72153,147189,284374,199879,10523,-438557,1636548400.0107524,1636548400.068937,5
242,0,337051,189143,72197,147276,284448,199946,10562,-438548,1636548400.0107548,1636548400.068937,5
243,0,336959,189079,72146,147234,284414,199919,10533,-438606,1636548400.0149496,1636548400.068937,5
244,0,337069,189222,72246,147273,284441,199943,10598,-438519,1636548400.0149567,1636548400.068937,5
245,0,337058,189220,72239,147259,284426,199939,10563,-438549,1636548400.0229516,1636548400.068937,5
246,0,336993,189203,72201,147231,284396,199902,10519,-438602,1636548400.0229547,1636548400.068937,5
247,0,337080,189318,72316,147408,284534,200026,10629,-438482,1636548400.0229688,1636548400.068937,5
248,0,337051,189249,72225,147351,284479,199988,10579,-438517,1636548400.0229692,1636548400.068937,5
249,0,337043,189251,72164,147297,284419,199929,10533,-438548,1636548400.0270045,1636548400.068937,5
250,0,336961,189177,72130,147273,284363,199883,10486,-438622,1636548400.0270066,1636548400.068937,5
251,0,336993,189229,72214,147370,284518,200021,10559,-438599,1636548400.0312836,1636548400.068937,5
252,0,336979,189216,72130,147294,284384,199837,10463,-438622,1636548400.031299,1636548400.068937,5
253,0,336898,189119,71959,147027,284187,199691,10384,-438712,1636548400.0351453,1636548400.068937,5
254,0,336929,189141,71967,146774,284219,199806,10467,-438687,1636548400.035148,1636548400.068937,5
255,0,336895,189131,71923,146794,284189,199781,10435,-438737,1636548400.0389535,1636548400.068937,5
256,0,336781,189076,71868,147398,284260,199711,10334,-438832,1636548400.0389555,1636548400.068937,5
257,0,336837,189174,71941,147465,284381,199812,10424,-438737,1636548400.0468357,1636548400.068937,5
258,0,336821,189159,71873,147183,284229,199748,10390,-438759,1636548400.0468376,1636548400.068937,5
259,0,336782,189172,71857,147124,284174,199681,10313,-438819,1636548400.0472207,1636548400.068937,5
260,0,336790,189231,71891,147251,284204,199674,10279,-438809,1636548400.0472229,1636548400.068937,5
261,0,336791,189230,71883,147273,284211,199681,10293,-438787,1636548400.0532255,1636548400.068937,5
262,0,336799,189250,71888,147259,284186,199666,10286,-438778,1636548400.0532284,1636548400.068937,5
263,0,336821,189287,71920,147303,284226,199705,10316,-438746,1636548400.0552623,1636548400.068937,5
264,0,336878,189346,71959,147337,284271,199769,10369,-438687,1636548400.0552657,1636548400.068937,5
265,0,336843,189356,71938,147318,284258,199766,10353,-438708,1636548400.0685885,1636548400.068937,5
266,0,336818,189369,71909,147304,284250,199743,10333,-438722,1636548400.0685904,1636548400.068937,5
267,0,336950,189501,72016,147417,284342,199841,10427,-438622,1636548400.0686016,1636548400.068937,5
268,0,336910,189479,71945,147211,284256,199784,10358,-438683,1636548400.068602,1636548400.068937,5
269,0,336848,189434,71828,146430,284059,199789,10359,-438706,1636548400.0686047,1636548400.068937,5
270,0,336843,189409,71721,146108,283875,199672,10286,-438762,1636548400.0686052,1636548400.068937,5
271,0,336797,189426,71826,147521,284210,199712,10287,-438783,1636548400.0752628,1636548400.068937,5
272,0,336793,189449,71926,148081,284375,199723,10258,-438791,1636548400.0752685,1636548400.068937,5
273,0,336791,189416,71823,147424,284135,199639,10199,-438846,1636548400.0752895,1636548400.068937,5
274,0,336764,189388,71776,147347,284121,199624,10188,-438895,1636548400.0752904,1636548400.068937,5
275,0,336797,189426,71826,147521,284210,199712,10287,-438783,1636548400.0752628,1636548400.131418,6
276,0,336793,189449,71926,148081,284375,199723,10258,-438791,1636548400.0752685,1636548400.131418,6
277,0,336791,189416,71823,147424,284135,199639,10199,-438846,1636548400.0752895,1636548400.131418,6
278,0,336764,189388,71776,147347,284121,199624,10188,-438895,1636548400.0752904,1636548400.131418,6
279,0,336814,189447,71814,147385,284146,199659,10214,-438882,1636548400.0787685,1636548400.131418,6
280,0,336776,189440,71789,147340,284111,199638,10186,-438915,1636548400.0787704,1636548400.131418,6
281,0,336863,189571,71874,147405,284178,199706,10253,-438827,1636548400.0825765,1636548400.131418,6
282,0,336793,189511,71780,147295,284062,199592,10123,-438941,1636548400.082579,1636548400.131418,6
283,0,336742,189509,71734,147291,284131,199693,10205,-438971,1636548400.0870185,1636548400.131418,6
284,0,336769,189573,71731,147297,284123,199686,10211,-438961,1636548400.0870237,1636548400.131418,6
285,0,336786,189601,71721,147304,284116,199683,10202,-438940,1636548400.090783,1636548400.131418,6
286,0,336802,189632,71729,147322,284133,199691,10221,-438931,1636548400.0907855,1636548400.131418,6
287,0,336831,189686,71763,147372,284192,199751,10276,-438875,1636548400.0949242,1636548400.131418,6
288,0,336774,189618,71666,147288,284118,199674,10190,-438951,1636548400.094927,1636548400.131418,6
289,0,336802,189669,71655,147288,284084,199646,10161,-438959,1636548400.0990129,1636548400.131418,6
290,0,336838,189753,71701,147316,284113,199683,10183,-438941,1636548400.0990148,1636548400.131418,6
291,0,336864,189801,71743,147383,284191,199776,10234,-438921,1636548400.1032865,1636548400.131418,6
292,0,336684,189673,71606,147291,284122,199723,10156,-439045,1636548400.1032925,1636548400.131418,6
293,0,336748,189756,71642,147264,284104,199700,10156,-439007,1636548400.1070044,1636548400.131418,6
294,0,336797,189851,71721,147294,284106,199697,10190,-438972,1636548400.1070065,1636548400.131418,6
295,0,336830,189919,71752,147335,284125,199725,10226,-438926,1636548400.1106703,1636548400.131418,6
296,0,336918,190011,71836,147416,284185,199787,10277,-438864,1636548400.1106725,1636548400.131418,6
297,0,336930,190036,71838,147432,284219,199807,10300,-438863,1636548400.1149993,1636548400.131418,6
298,0,336889,189998,71799,147392,284207,199788,10272,-438900,1636548400.1150017,1636548400.131418,6
299,0,336823,189960,71739,147340,284159,199738,10220,-438969,1636548400.1187544,1636548400.131418,6
300,0,336900,190059,71816,147431,284239,199826,10303,-438904,1636548400.1187584,1636548400.131418,6
301,0,336953,190166,71893,147531,284313,199921,10374,-438867,1636548400.1226978,1636548400.131418,6
302,0,336831,190093,71823,147354,284248,199896,10361,-438928,1636548400.1227005,1636548400.131418,6
303,0,336966,190201,71746,146877,283987,199721,10278,-438836,1636548400.126598,1636548400.131418,6
304,0,336907,190177,71697,146987,284069,199792,10320,-438881,1636548400,1636548400.131418,6
305,0,336888,190210,71759,147700,284228,199761,10278,-438921,1636548400.130479,1636548400.131418,6
306,0,336814,190194,71719,147649,284207,199696,10203,-438979,1636548400.1304808,1636548400.131418,6
307,0,336795,190223,71674,147416,284087,199656,10193,-438977,1636548400.1363583,1636548400.131418,6
308,0,336761,190228,71659,147404,284125,199729,10240,-438973,1636548400.1363647,1636548400.131418,6
309,0,336793,190368,71619,147313,284076,199688,10184,-438961,1636548400.1482916,1636548400.200415,7
310,0,336851,190431,71649,147310,284058,199665,10177,-438933,1636548400.1545317,1636548400.200415,7
311,0,336839,190466,71683,147389,284172,199794,10249,-438912,1636548400.1545386,1636548400.200415,7
312,0,336881,190526,71674,147387,284143,199749,10203,-438915,1636548400.1547186,1636548400.200415,7
313,0,336871,190511,71650,147382,284154,199754,10199,-438946,1636548400.1547222,1636548400.200415,7
314,0,336786,190466,71588,147331,284121,199749,10172,-439009,1636548400,1636548400.200415,7
315,0,336839,190568,71610,147286,284164,199807,10220,-438947,1636548400.1586852,1636548400.200415,7
316,0,336939,190688,71605,146671,284038,199844,10273,-438880,1636548400.162558,1636548400.200415,7
317,0,336841,190629,71431,146117,283838,199744,10188,-438979,1636548400.1625624,1636548400.200415,7
318,0,336800,190663,71504,147233,284101,199766,10187,-439006,1636548400.1665819,1636548400.200415,7
319,0,336726,190661,71568,148173,284355,199748,10129,-439062,1636548400.166584,1636548400.200415,7
320,0,336829,190797,71631,147626,284308,199828,10239,-438952,1636548400.1705952,1636548400.200415,7
321,0,336825,190818,71597,147496,284289,199845,10237,-438947,1636548400.1705973,1636548400.200415,7
322,0,336778,190838,71547,147452,284248,199811,10209,-438974,1636548400.1754766,1636548400.200415,7
323,0,336788,190916,71532,147406,284176,199751,10143,-438986,1636548400.1754787,1636548400.200415,7
324,0,336850,191044,71588,147458,284235,199830,10202,-438921,1636548400.179836,1636548400.200415,7
325,0,336843,191076,71572,147465,284269,199866,10234,-438891,1636548400.1798387,1636548400.200415,7
326,0,336821,191091,71548,147455,284277,199871,10238,-438885,1636548400.182475,1636548400.200415,7
327,0,336678,191008,71408,147325,284158,199739,10102,-439021,1636548400.1824772,1636548400.200415,7
328,0,336689,191070,71421,147343,284188,199764,10088,-439029,1636548400.193431,1636548400.200415,7
329,0,336756,191148,71440,147348,284171,199743,10096,-439016,1636548400.1934328,1636548400.200415,7
330,0,336777,191172,71449,147339,284141,199718,10148,-438990,1636548400.1938317,1636548400.200415,7
331,0,336881,191339,71633,147545,284394,200003,10361,-438842,1636548400.1938329,1636548400.200415,7
332,0,336908,191403,71637,147526,284327,199953,10334,-438755,1636548400.1945624,1636548400.200415,7
333,0,336656,191188,71390,147296,284109,199745,10111,-438941,1636548400.1945634,1636548400.200415,7
334,0,336594,191189,71329,147230,284016,199643,10023,-439033,1636548400.1984255,1636548400.200415,7
335,0,336622,191241,71341,147244,284034,199652,10010,-439076,1636548400.1984267,1636548400.200415,7
336,0,336735,191367,71435,147364,284171,199796,10128,-438980,1636548400,1636548400.200415,7
337,0,336738,191359,71406,147335,284139,199751,10094,-438999,1636548400.2025223,1636548400.200415,7
338,0,336717,191376,71409,147331,284158,199750,10079,-439006,1636548400.206555,1636548400.200415,7
339,0,336702,191382,71372,147201,284092,199686,10034,-439041,1636548400.206557,1636548400.200415,7
340,0,336796,191496,71428,146933,284064,199744,10101,-438957,1636548400.2128868,1636548400.269699,8
341,0,336729,191433,71345,146852,283978,199683,10031,-439034,1636548400.2128916,1636548400.269699,8
342,0,336708,191438,71388,147478,284098,199666,10000,-439064,1636548400.2149785,1636548400.269699,8
343,0,336749,191509,71511,147600,284239,199761,10086,-438976,1636548400.2149854,1636548400.269699,8
344,0,336720,191508,71483,147448,284214,199780,10106,-438979,1636548400.2184165,1636548400.269699,8
345,0,336665,191478,71479,147481,284251,199819,10129,-439034,1636548400.2184188,1636548400.269699,8
346,0,336739,191536,71538,147479,284299,199881,10196,-438984,1636548400.2235274,1636548400.269699,8
347,0,336874,191681,71583,147443,284172,199737,10081,-438976,1636548400.2235312,1636548400.269699,8
348,0,336794,191618,71574,147450,284224,199831,10123,-438989,1636548400.2268229,1636548400.269699,8
349,0,336791,191622,71579,147415,284179,199785,10129,-438987,1636548400.2268252,1636548400.269699,8
350,0,336803,191633,71531,147331,284059,199656,10036,-439013,1636548400.2304075,1636548400.269699,8
351,0,336728,191611,71516,147325,284098,199656,10034,-439034,1636548400,1636548400.269699,8
352,0,336769,191703,71568,147329,284086,199638,10041,-439008,1636548400.234837,1636548400.269699,8
353,0,336859,191821,71654,147421,284188,199735,10144,-438921,1636548400.234876,1636548400.269699,8
354,0,336853,191830,71680,147461,284256,199811,10183,-438933,1636548400.2385988,1636548400.269699,8
355,0,336812,191793,71645,147413,284220,199776,10137,-438979,1636548400.2386007,1636548400.269699,8
356,0,336893,191906,71726,147488,284301,199855,10218,-438911,1636548400.242473,1636548400.269699,8
357,0,336789,191826,71589,147387,284182,199736,10096,-439049,1636548400.2424746,1636548400.269699,8
358,0,336771,191830,71549,147357,284178,199755,10111,-439044,1636548400,1636548400.269699,8
359,0,336839,191894,71591,147372,284196,199774,10133,-438993,1636548400.2464528,1636548400.269699,8
360,0,336988,192050,71718,147061,284179,199845,10219,-438872,1636548400.2557375,1636548400.269699,8
361,0,336966,192023,71623,146340,283994,199829,10208,-438881,1636548400.2557423,1636548400.269699,8
362,0,336867,191993,71615,146897,284094,199848,10215,-438911,1636548400.2557733,1636548400.269699,8
363,0,336714,191886,71643,148259,284386,199794,10091,-439042,1636548400.2557735,1636548400.269699,8
364,0,336775,191941,71666,147809,284336,199805,10107,-438987,1636548400.2632651,1636548400.269699,8
365,0,336859,192041,71707,147601,284311,199870,10159,-438903,1636548400.2632673,1636548400.269699,8
366,0,336878,192088,71718,147571,284306,199879,10183,-438877,1636548400.2632806,1636548400.269699,8
367,0,336773,191998,71573,147423,284194,199771,10093,-438999,1636548400.2632813,1636548400.269699,8
368,0,336768,192013,71545,147414,284194,199764,10090,-438979,1636548400.266343,1636548400.269699,8
369,0,336804,192046,71583,147479,284233,199788,10121,-438959,1636548400.2663445,1636548400.269699,8
370,0,336779,192023,71571,147473,284246,199823,10146,-438965,1636548400.2703748,1636548400.269699,8
371,0,336775,192043,71558,147443,284211,199802,10143,-438964,1636548400.270376,1636548400.269699,8
372,0,336864,192145,71582,147416,284153,199758,10114,-438921,1636548400.2748432,1636548400.269699,8
373,0,336911,192204,71662,147483,284238,199833,10178,-438873,1636548400.274851,1636548400.269699,8
374,0,336804,192228,71592,147289,284154,199763,10078,-438985,1636548400.2863228,1636548400.338533,9
375,0,336874,192284,71589,146957,284083,199754,10114,-438936,1636548400.286326,1636548400.338533,9
376,0,336861,192311,71591,147034,284107,199758,10114,-438939,1636548400.2910657,1636548400.338533,9
377,0,336838,192339,71659,147694,284276,199794,10135,-438919,1636548400.2910707,1636548400.338533,9
378,0,336766,192284,71613,147549,284218,199714,10064,-439012,1636548400.294438,1636548400.338533,9
379,0,336813,192344,71624,147436,284216,199745,10101,-438994,1636548400.2944405,1636548400.338533,9
380,0,336895,192450,71732,147575,284276,199805,10164,-438917,1636548400.2988057,1636548400.338533,9
381,0,336894,192490,71730,147528,284259,199789,10146,-438911,1636548400.2988133,1636548400.338533,9
382,0,336921,192495,71723,147514,284248,199774,10127,-438909,1636548400.3025448,1636548400.338533,9
383,0,336823,192386,71606,147409,284143,199666,10027,-439019,1636548400.3025467,1636548400.338533,9
384,0,336799,192345,71609,147402,284174,199681,10036,-439014,1636548400.3066683,1636548400.338533,9
385,0,336828,192412,71671,147446,284229,199724,10086,-438982,1636548400.3066702,1636548400.338533,9
386,0,336922,192518,71739,147529,284295,199807,10174,-438902,1636548400.3103983,1636548400.338533,9
387,0,336939,192528,71751,147521,284258,199774,10153,-438909,1636548400.3104012,1636548400.338533,9
388,0,336938,192519,71750,147470,284194,199719,10104,-438937,1636548400.3151596,1636548400.338533,9
389,0,336876,192439,71690,147401,284121,199673,10030,-439009,1636548400.3151624,1636548400.338533,9
390,0,336768,192355,71673,147454,284258,199825,10075,-439040,1636548400.318595,1636548400.338533,9
391,0,336885,192481,71741,147474,284234,199759,10068,-438957,1636548400.3185973,1636548400.338533,9
392,0,336964,192569,71824,147531,284273,199789,10162,-438867,1636548400.3231921,1636548400.338533,9
393,0,336831,192458,71715,147443,284219,199756,10078,-438992,1636548400.3231945,1636548400.338533,9
394,0,336856,192478,71706,147468,284242,199778,10089,-438982,1636548400.3267384,1636548400.338533,9
395,0,336921,192563,71785,147557,284340,199891,10196,-438896,1636548400.3267405,1636548400.338533,9
396,0,336931,192614,71805,147568,284347,199896,10206,-438881,1636548400.3304107,1636548400.338533,9
397,0,336973,192660,71791,147528,284272,199825,10154,-438901,1636548400.3304126,1636548400.338533,9
398,0,336876,192575,71699,147445,284198,199728,10061,-438973,1636548400.3345351,1636548400.338533,9
399,0,336816,192536,71673,147441,284196,199725,10059,-438999,1636548400.3345382,1636548400.338533,9
400,0,336764,192519,71640,147429,284216,199746,10063,-439031,1636548400.3384733,1636548400.338533,9
401,0,336818,192574,71683,147309,284208,199764,10091,-438974,1636548400.3384757,1636548400.338533,9
402,0,336967,192712,71738,146673,284136,199858,10211,-438835,1636548400.342347,1636548400.338533,9
403,0,336908,192655,71634,146383,284020,199779,10153,-438887,1636548400.3423488,1636548400.338533,9
404,0,336791,192544,71632,147691,284239,199688,10033,-439008,1636548400.3467708,1636548400.338533,9
405,0,336823,192573,71730,148234,284466,199745,10050,-438978,1636548400.346773,1636548400.338533,9
406,0,336940,192669,71776,147729,284429,199831,10146,-438873,1636548400.3512096,1636548400.338533,9
407,0,336871,192573,71701,147598,284356,199781,10147,-438910,1636548400.3512125,1636548400.338533,9
408,0,336791,192544,71632,147691,284239,199688,10033,-439008,1636548400.3467708,1636548400.416678,10
409,0,336823,192573,71730,148234,284466,199745,10050,-438978,1636548400.346773,1636548400.416678,10
410,0,336940,192669,71776,147729,284429,199831,10146,-438873,1636548400.3512096,1636548400.416678,10
411,0,336871,192573,71701,147598,284356,199781,10147,-438910,1636548400.3512125,1636548400.416678,10
412,0,336893,192550,71596,147465,284219,199668,10033,-438958,1636548400.3546035,1636548400.416678,10
413,0,336948,192605,71629,147494,284311,199770,10103,-438920,1636548400.3546088,1636548400.416678,10
414,0,336948,192605,71629,147494,284311,199770,10103,-438920,1636548400.358984,1636548400.416678,10
415,0,336948,192605,71629,147494,284311,199770,10103,-438920,1636548400.358986,1636548400.416678,10
416,0,336948,192605,71629,147494,284311,199770,10103,-438920,1636548400.3589869,1636548400.416678,10
417,0,336859,192646,71655,147434,284281,199703,10033,-438963,1636548400.3666704,1636548400.416678,10
418,0,336801,192613,71591,147373,284223,199627,9978,-439006,1636548400.3666732,1636548400.416678,10
419,0,336773,192638,71606,147383,284226,199645,9996,-438972,1636548400.3705597,1636548400.416678,10
420,0,336814,192686,71643,147431,284279,199701,10052,-438922,1636548400.370562,1636548400.416678,10
421,0,336849,192674,71642,147422,284293,199703,10066,-438922,1636548400.3744452,1636548400.416678,10
422,0,336875,192659,71636,147376,284289,199685,10070,-438919,1636548400.3744473,1636548400.416678,10
423,0,336845,192656,71618,147313,284268,199664,10047,-438921,1636548400.3784697,1636548400.416678,10
424,0,336828,192659,71578,147062,284191,199639,10034,-438913,1636548400.3784723,1636548400.416678,10
425,0,336927,192753,71663,147046,284241,199728,10119,-438833,1636548400.382658,1636548400.416678,10
426,0,336799,192644,71581,147427,284216,199638,9985,-438971,1636548400.3826602,1636548400.416678,10
427,0,336784,192635,71617,147741,284330,199648,9984,-438992,1636548400.3866932,1636548400.416678,10
428,0,336811,192660,71616,147504,284294,199650,10032,-438945,1636548400.3866973,1636548400.416678,10
429,0,336844,192708,71661,147518,284298,199662,10075,-438893,1636548400.392129,1636548400.416678,10
430,0,336783,192641,71618,147474,284256,199621,10036,-438947,1636548400.392131,1636548400.416678,10
431,0,336803,192631,71616,147478,284291,199639,10033,-438939,1636548400.394878,1636548400.416678,10
432,0,336768,192604,71578,147422,284237,199596,9984,-438964,1636548400.3948798,1636548400.416678,10
433,0,336758,192603,71575,147401,284224,199601,9969,-438972,1636548400.3986769,1636548400.416678,10
434,0,336835,192681,71666,147463,284288,199669,10023,-438911,1636548400.3986793,1636548400.416678,10
435,0,336809,192647,71661,147462,284287,199666,9996,-438944,1636548400.4024425,1636548400.416678,10
436,0,336665,192497,71518,147352,284174,199550,9870,-439066,1636548400.4024458,1636548400.416678,10
437,0,336725,192547,71580,147428,284244,199625,9935,-438994,1636548400.4065497,1636548400.416678,10
438,0,336728,192563,71611,147464,284299,199652,9974,-438993,1636548400.406554,1636548400.416678,10
439,0,336689,192533,71586,147448,284274,199633,9954,-439009,1636548400.4136317,1636548400.416678,10
440,0,336635,192471,71509,147398,284228,199579,9900,-439051,1636548400.4136372,1636548400.416678,10
441,0,336636,192466,71533,147411,284239,199596,9928,-439035,1636548400.4144893,1636548400.416678,10
442,0,336653,192483,71535,147397,284238,199604,9946,-439029,1636548400.414492,1636548400.416678,10
443,0,336673,192496,71551,147404,284249,199613,9951,-439007,1636548400.4209352,1636548400.416678,10
444,0,336732,192531,71663,147516,284340,199679,10016,-438947,1636548400.4209456,1636548400.416678,10
445,0,336818,192604,71754,147614,284424,199754,10109,-438851,1636548400.4226568,1636548400.416678,10
446,0,336672,192439,71597,147451,284271,199593,9971,-438983,1636548400.4226625,1636548400.416678,10
447,0,336749,192464,71529,146396,284041,199579,9994,-438951,1636548400.4302664,1636548400.485678,11
448,0,336649,192367,71418,146398,283981,199499,9899,-439036,1636548400.4302685,1636548400.485678,11
449,0,336574,192286,71485,147940,284346,199504,9845,-439129,1636548400.4342248,1636548400.485678,11
450,0,336690,192381,71619,148045,284514,199647,9938,-439031,1636548400.4342268,1636548400.485678,11
451,0,336691,192348,71539,147546,284344,199627,9918,-439051,1636548400.438374,1636548400.485678,11
452,0,336738,192371,71567,147528,284343,199668,9949,-439020,1636548400.4383767,1636548400.485678,11
453,0,336857,192469,71691,147596,284429,199768,10039,-438916,1636548400.4423723,1636548400.485678,11
454,0,336806,192419,71606,147435,284343,199713,9988,-438974,1636548400.4423745,1636548400.485678,11
455,0,336822,192461,71522,147371,284284,199686,9976,-438966,1636548400.4475048,1636548400.485678,11
456,0,336830,192481,71403,147320,284246,199651,9966,-438968,1636548400.4475088,1636548400.485678,11
457,0,336755,192416,71386,147532,284354,199680,9956,-439024,1636548400.4553673,1636548400.485678,11
458,0,336781,192486,71626,147558,284404,199694,9960,-439029,1636548400.455372,1636548400.485678,11
459,0,336783,192520,71708,147549,284365,199679,9934,-439032,1636548400.455398,1636548400.485678,11
460,0,336711,192484,71600,147338,284286,199638,9893,-439063,1636548400.455399,1636548400.485678,11
461,0,336779,192591,71641,147049,284269,199696,9974,-438956,1636548400.4643307,1636548400.485678,11
462,0,336736,192528,71578,147117,284236,199656,9936,-439014,1636548400.4643328,1636548400.485678,11
463,0,336766,192574,71676,147826,284433,199723,9960,-438987,1636548400.4770367,1636548400.485678,11
464,0,336709,192523,71640,147709,284416,199688,9919,-439050,1636548400.4770434,1636548400.485678,11
465,0,336666,192468,71598,147488,284322,199641,9899,-439094,1636548400.4770677,1636548400.485678,11
466,0,336728,192511,71684,147537,284400,199728,9974,-439025,1636548400.4770682,1636548400.485678,11
467,0,336771,192536,71744,147572,284451,199762,9992,-439014,1636548400.477071,1636548400.485678,11
468,0,336700,192481,71703,147546,284426,199739,9942,-439087,1636548400.4770713,1636548400.485678,11
469,0,336663,192473,71715,147615,284476,199811,9986,-439082,1636548400.477075,1636548400.485678,11
470,0,336557,192385,71644,147615,284499,199842,9997,-439111,1636548400.4770756,1636548400.485678,11
471,0,336539,192376,71678,147663,284580,199933,10047,-439061,1636548400.478273,1636548400.485678,11
472,0,336496,192354,71684,147653,284547,199916,9988,-439107,1636548400.4782753,1636548400.485678,11
473,0,336653,192502,71764,147731,284634,200002,10112,-439006,1636548400.4822686,1636548400.485678,11
474,0,336668,192462,71607,147581,284508,199894,10053,-439037,1636548400.482271,1636548400.485678,11
475,0,336736,192504,71630,147546,284458,199843,10039,-439034,1636548400,1636548400.485678,11
476,0,336830,192566,71806,147554,284409,199782,9967,-439071,1636548400.4870052,1636548400.485678,11
477,0,337022,192656,71823,147573,284444,199848,10039,-438947,1636548400.4908285,1636548400.485678,11
478,0,336871,192468,71621,147429,284281,199711,9941,-439060,1636548400.4908335,1636548400.485678,11
479,0,336791,192373,71546,147393,284220,199628,9861,-439149,1636548400.4941432,1636548400.485678,11
480,0,336822,192346,71451,147221,284109,199559,9843,-439116,1636548400.494146,1636548400.485678,11
481,0,337169,192567,71846,147654,284613,200088,10231,-438802,1636548400.5020795,1636548400.538965,12
482,0,337051,192378,71636,147409,284426,199936,10143,-438897,1636548400.5020812,1636548400.538965,12
483,0,337022,192463,71790,147421,284378,199881,10087,-438931,1636548400.5066905,1636548400.538965,12
484,0,336959,192473,71833,147526,284397,199838,10015,-439002,1636548400.506692,1636548400.538965,12
485,0,337022,192515,71801,147575,284426,199859,10038,-438977,1636548400.5137467,1636548400.538965,12
486,0,337083,192589,71828,147616,284489,199897,10094,-438926,1636548400.5137491,1636548400.538965,12
487,0,337061,192536,71809,147581,284436,199841,10039,-438976,1636548400.5142987,1636548400.538965,12
488,0,337074,192537,71855,147586,284483,199887,10077,-438932,1636548400.5143003,1636548400.538965,12
489,0,337072,192494,71848,147589,284485,199894,10061,-438922,1636548400.5182211,1636548400.538965,12
490,0,337087,192463,71845,147596,284480,199893,10047,-438925,1636548400.5182235,1636548400.538965,12
491,0,337116,192486,71898,147634,284521,199915,10083,-438897,1636548400.5235934,1636548400.538965,12
492,0,337034,192385,71818,147380,284368,199804,9989,-438991,1636548400.5235956,1636548400.538965,12
493,0,337084,192392,71758,146604,284212,199805,10017,-438962,1636548400.5259662,1636548400.538965,12
494,0,337134,192396,71719,146108,284097,199818,10055,-438935,1636548400.5259671,1636548400.538965,12
495,0,337071,192242,71589,147227,284287,199841,9994,-438981,1636548400.530234,1636548400.538965,12
496,0,336849,191899,71333,148007,284456,199722,9713,-439167,1636548400.530236,1636548400.538965,12
497,0,336853,191839,71141,147274,284142,199544,9654,-439161,1636548400.5344365,1636548400.538965,12
498,0,336812,191991,71384,147320,283866,199370,9792,-439161,1636548400.534439,1636548400.538965,12
499,0,336913,192347,72006,147370,284119,199564,9968,-439072,1636548401,1636548400.538965,12
500,0,336885,192344,72235,147573,284614,199957,10101,-439040,1636548400.538173,1636548400.538965,12
501,0,336800,192153,72109,148208,284694,200100,10119,-439038,1636548400.544304,1636548400.538965,12
502,0,336729,191963,71914,148129,284683,200079,10059,-439103,1636548400.5443065,1636548400.538965,12
503,0,336759,191886,71681,147625,284553,200053,10004,-439086,1636548400.5463629,1636548400.538965,12
504,0,336764,191801,71363,147189,284421,200006,9905,-439123,1636548400.5463667,1636548400.538965,12
505,0,336908,191945,71488,147279,284418,199811,9929,-439059,1636548400.5501547,1636548400.538965,12
506,0,337036,192063,71532,147411,284379,199804,9956,-438999,1636548400.5501573,1636548400.538965,12
507,0,336764,191801,71363,147189,284421,200006,9905,-439123,1636548400.5463667,1636548400.617137,13
508,0,336908,191945,71488,147279,284418,199811,9929,-439059,1636548400.5501547,1636548400.617137,13
509,0,337036,192063,71532,147411,284379,199804,9956,-438999,1636548400.5501573,1636548400.617137,13
510,0,337138,192183,71755,147820,284459,199841,9973,-438954,1636548400.5582736,1636548400.617137,13
511,0,337081,192187,71864,147831,284459,199807,9921,-439033,1636548400.5582798,1636548400.617137,13
512,0,336932,192074,71866,147829,284497,199828,9936,-439127,1636548400.5661044,1636548400.617137,13
513,0,336784,191874,71636,147588,284316,199734,9918,-439193,1636548400.5661073,1636548400.617137,13
514,0,336822,191976,71792,147806,284526,199906,9996,-439113,1636548400.5661201,1636548400.617137,13
515,0,336680,191871,71746,147823,284535,199904,9929,-439217,1636548400.5661209,1636548400.617137,13
516,0,336668,191784,71634,147671,284452,199886,9973,-439169,1636548400.5684705,1636548400.617137,13
517,0,336784,191712,71411,147234,284387,199932,10116,-439043,1636548400.5684724,1636548400.617137,13
518,0,336834,191564,70531,146664,284176,199889,10135,-439124,1636548400.5726457,1636548400.617137,13
519,0,336869,191468,69340,146073,283847,199674,9884,-439320,1636548400.5726476,1636548400.617137,13
520,0,337076,191577,68999,145661,283758,199641,9847,-439369,1636548400.574391,1636548400.617137,13
521,0,337064,191609,70224,145892,283610,199474,9658,-439291,1636548400.5743933,1636548400.617137,13
522,0,336959,191623,70996,146231,283391,199366,9539,-438972,1636548400.5817764,1636548400.617137,13
523,0,337242,192084,71366,147443,284144,199838,9893,-438727,1636548400.5817783,1636548400.617137,13
524,0,337220,192088,71338,147851,284333,199876,9958,-438885,1636548400.5820253,1636548400.617137,13
525,0,336866,191828,71463,147379,284131,199514,9665,-439172,1636548400.5820265,1636548400.617137,13
526,0,336735,191769,71875,147460,284082,199437,9602,-439243,1636548400.5870385,1636548400.617137,13
527,0,336792,191698,71781,147583,284143,199506,9637,-439158,1636548400.5870423,1636548400.617137,13
528,0,336953,191786,71665,147604,284175,199319,9654,-439019,1636548400.590806,1636548400.617137,13
529,0,337344,192245,72022,147997,284589,199771,10013,-438874,1636548400.5908089,1636548400.617137,13
530,0,337137,192071,71874,147839,284464,199792,9909,-439077,1636548400.5941522,1636548400.617137,13
531,0,337053,191982,71779,147736,284386,199725,9842,-439032,1636548400.5941536,1636548400.617137,13
532,0,337069,192018,71756,147688,284334,199669,9638,-439093,1636548400.5982037,1636548400.617137,13
533,0,337314,192278,71974,147843,284464,199775,9527,-438998,1636548400.598206,1636548400.617137,13
534,0,337281,192243,71917,147769,284438,199714,9511,-438967,1636548400.6020052,1636548400.617137,13
535,0,337084,192028,71634,147472,284264,199627,9978,-439041,1636548400.6020072,1636548400.617137,13
536,0,337043,191926,71520,147283,284144,199699,10117,-439027,1636548401,1636548400.617137,13
537,0,336980,191906,71600,147359,284115,199605,9879,-439047,1636548400.6064637,1636548400.617137,13
538,0,337089,192008,71807,147701,284263,199556,9828,-438987,1636548400.6134715,1636548400.617137,13
539,0,337336,192193,71972,147993,284533,199825,9999,-438809,1636548400.613474,1636548400.617137,13
540,0,337431,192288,72046,148078,284675,200016,10174,-438692,1636548400.6142435,1636548400.617137,13
541,0,337669,192664,72452,148363,284972,200313,10546,-438251,1636548400.6142468,1636548400.617137,13
542,0,338091,193137,72978,148881,285487,200810,11158,-437335,1636548400.6178522,1636548400.617137,13
543,0,338662,193601,73489,149434,286041,201321,12078,-436105,1636548400.6178544,1636548400.617137,13
544,0,339171,193716,73564,149551,286203,201570,12893,-434888,1636548400.624447,1636548400.617137,13
545,0,338071,192131,71838,147746,284436,199880,11136,-436736,1636548401,1636548400.617137,13
546,0,336266,191066,70723,145506,283178,199016,8993,-440303,1636548400.6299927,1636548400.686249,14
547,0,336803,191524,71444,147431,283965,199447,9474,-439406,1636548400.629995,1636548400.686249,14
548,0,336868,191470,71389,147624,283991,199381,9398,-439426,1636548400.6339684,1636548400.686249,14
549,0,336872,191433,71288,147631,283938,199313,9361,-439447,1636548400.6339707,1636548400.686249,14
550,0,336870,191400,71309,147538,283939,199316,9402,-439375,1636548400.6382174,1636548400.686249,14
551,0,336837,191323,71221,147296,283841,199262,9355,-439391,1636548400.638219,1636548400.686249,14
552,0,336938,191382,71307,147353,283923,199349,9448,-439284,1636548400.6427128,1636548400.686249,14
553,0,336849,191290,71236,147273,283833,199253,9350,-439386,1636548400.6427152,1636548400.686249,14
554,0,336895,191309,71278,147297,283899,199318,9406,-439337,1636548401,1636548400.686249,14
555,0,336933,191301,71296,147288,283907,199331,9457,-439268,1636548400.646165,1636548400.686249,14
556,0,336943,191261,71269,147228,283889,199328,9471,-439219,1636548400.6507423,1636548400.686249,14
557,0,337014,191290,71315,147214,283948,199396,9544,-439101,1636548400.6507444,1636548400.686249,14
558,0,336898,191164,71278,147095,283831,199304,9405,-439246,1636548400.6539552,1636548400.686249,14
559,0,336932,191168,71358,147288,283933,199372,9393,-439296,1636548400.6539574,1636548400.686249,14
560,0,337038,191238,71469,147426,284065,199489,9533,-439174,1636548400.6606476,1636548400.686249,14
561,0,337027,191228,71468,147364,284047,199491,9543,-439161,1636548400.6606495,1636548400.686249,14
562,0,336983,191243,71519,147498,284121,199542,9557,-439172,1636548400.670074,1636548400.686249,14
563,0,336889,191161,71471,147422,284069,199521,9517,-439245,1636548400.6700761,1636548400.686249,14
564,0,336939,191194,71548,147493,284170,199609,9624,-439139,1636548400.670088,1636548400.686249,14
565,0,336896,191099,71503,147467,284159,199580,9613,-439164,1636548400.6700883,1636548400.686249,14
566,0,336882,191035,71452,147418,284113,199555,9592,-439148,1636548400.6704404,1636548400.686249,14
567,0,336889,190973,71408,147317,284009,199454,9537,-439134,1636548400.6704416,1636548400.686249,14
568,0,336741,190754,71283,147179,283901,199365,9466,-439198,1636548400.6753533,1636548400.686249,14
569,0,336674,190643,71243,147214,283969,199429,9513,-439147,1636548400.6753693,1636548400.686249,14
570,0,337124,191052,71510,147434,284224,199734,9801,-438831,1636548400.6784005,1636548400.686249,14
571,0,337421,191336,71742,147643,284449,199968,9952,-438921,1636548400.6784036,1636548400.686249,14
572,0,337323,191244,71653,147523,284308,199852,9914,-438946,1636548400.684455,1636548400.686249,14
573,0,337191,191113,71519,147378,284167,199720,9795,-439051,1636548400.6844568,1636548400.686249,14
574,0,337081,191026,71461,147289,284077,199600,9650,-439136,1636548400.6862037,1636548400.686249,14
575,0,336802,190831,71416,147255,284044,199544,9545,-439161,1636548400.6862056,1636548400.686249,14
576,0,336898,190860,71476,147340,284142,199644,9657,-439099,1636548400.6930597,1636548400.686249,14
577,0,336903,190837,71443,147288,284097,199609,9644,-439136,1636548400.693062,1636548400.686249,14
578,0,336932,190863,71489,147313,284127,199633,9645,-439123,1636548400.6937983,1636548400.686249,14
579,0,337025,190948,71572,147392,284199,199705,9727,-439046,1636548401,1636548400.686249,14
580,0,336898,190860,71476,147340,284142,199644,9657,-439099,1636548400.6930597,1636548401,15
581,0,336903,190837,71443,147288,284097,199609,9644,-439136,1636548400.693062,1636548401,15
582,0,336932,190863,71489,147313,284127,199633,9645,-439123,1636548400.6937983,1636548401,15
583,0,337025,190948,71572,147392,284199,199705,9727,-439046,1636548401,1636548401,15
584,0,336924,190823,71423,147307,284115,199609,9663,-439091,1636548400.6977518,1636548401,15
585,0,336914,190802,71340,147242,284106,199621,9692,-439065,1636548400.6977537,1636548401,15
586,0,336820,190736,71273,147146,284020,199560,9642,-439128,1636548400.7018309,1636548401,15
587,0,336747,190725,71359,147231,284058,199554,9573,-439233,1636548400.7018328,1636548401,15
588,0,337126,191148,71914,147734,284535,200018,9929,-438937,1636548400.7060988,1636548401,15
589,0,336923,190947,71780,147608,284429,199926,9853,-439047,1636548400.7061017,1636548401,15
590,0,336754,190779,71643,147514,284359,199876,9806,-439114,1636548400.7102287,1636548401,15
591,0,336709,190711,71644,147560,284398,199920,9851,-439081,1636548400.710233,1636548401,15
592,0,336743,190714,71666,147678,284559,200081,10026,-439011,1636548400.7146552,1636548401,15
593,0,336809,190768,71683,147411,284519,200142,10206,-438917,1636548400.7146575,1636548401,15
594,0,336983,190853,71694,146518,284368,200243,10431,-438699,1636548400.7182698,1636548401,15
595,0,336913,190608,71320,145917,284019,200049,10464,-438672,1636548400.7182736,1636548401,15
596,0,336488,189883,70433,146588,283528,199319,9737,-439107,1636548400.7218993,1636548401,15
597,0,336449,189901,70396,146789,283491,199137,9066,-439596,1636548400.7219028,1636548401,15
598,0,337269,190971,71483,147094,284204,199875,9646,-438921,1636548400.7261732,1636548401,15
599,0,338333,192168,72739,147984,285461,201159,10948,-437571,1636548400.7261753,1636548401,15
600,0,338351,192257,73062,148879,285601,201346,11294,-436911,1636548400.7303143,1636548401,15
601,0,337849,191761,72757,148896,285253,200898,11149,-437695,1636548400.730316,1636548401,15
602,0,337058,190623,71710,147972,284460,200004,10746,-438662,1636548400.733972,1636548401,15
603,0,336730,190049,71073,147231,283669,199253,9609,-439849,1636548400.7339745,1636548401,15
604,0,337089,190816,71732,147774,284282,199784,9368,-440012,1636548400.737878,1636548401,15
605,0,337042,190494,71166,147424,284105,199669,9883,-439289,1636548401,1636548401,15
606,0,337469,190528,71206,147398,284118,199684,10053,-438594,1636548400.7426572,1636548401,15
607,0,338210,191274,72144,148139,284826,200412,10333,-438242,1636548400.7426596,1636548401,15
608,0,337171,190219,71173,147351,283933,199643,9416,-439109,1636548400.7469044,1636548401,15
609,0,336578,189636,70379,146742,283519,199242,9154,-439406,1636548400.7469077,1636548401,15
610,0,336677,189870,70773,146888,283706,199374,9315,-439465,1636548400.7502413,1636548401,15
611,0,336638,190011,71410,147100,283719,199369,9353,-439576,1636548400.7502437,1636548401,15
612,0,336835,190175,71388,147246,283918,199577,9486,-439464,1636548400.7538755,1636548401,15
613,0,337061,190354,71454,147409,284122,199780,9684,-439063,1636548400.753878,1636548401,15
614,0,337144,190214,70851,147254,284091,199832,9856,-438697,1636548400.757978,1636548401,15
615,0,337266,189784,68594,146241,283903,199876,10004,-438721,1636548400.757982,1636548401,15
616,0,337159,189304,67906,145098,283611,199833,10061,-439006,1636548400.7621942,1636548401,15
617,0,336428,188873,68964,144862,283049,199338,9543,-439478,1636548400.7621963,1636548401,15
618,0,336291,188947,70345,145295,282959,199192,9439,-439098,1636548400.7718205,1636548401,15
619,0,336358,188872,69530,145318,282844,199110,9408,-438888,1636548400.7718244,1636548401,15
620,0,336812,189804,70746,146679,283759,199661,9682,-438903,1636548400.7718503,1636548401,15
621,0,337526,190864,72016,147659,285127,200640,10440,-438321,1636548400.7718515,1636548401,15
622,0,337438,190679,72624,148765,285251,200738,10684,-438176,1636548400.7815437,1636548400.833524,16
623,0,337463,190684,72883,148980,285114,200652,10716,-438559,1636548400.781546,1636548400.833524,16
624,0,337296,190296,72014,147850,284478,200050,10049,-439604,1636548400.7815578,1636548400.833524,16
625,0,336459,189295,70524,146605,283333,198951,8811,-439920,1636548400.7815583,1636548400.833524,16
626,0,336318,189102,70278,146484,283304,198950,9079,-439071,1636548400.782055,1636548400.833524,16
627,0,336489,189181,70482,146663,283521,199239,9504,-438849,1636548400.782056,1636548400.833524,16
628,0,336843,189546,70953,146941,283764,199549,9770,-439145,1636548400.786606,1636548400.833524,16
629,0,337334,190058,71506,147275,284099,199881,9841,-439359,1636548400.786608,1636548400.833524,16
630,0,337069,189684,71435,147018,283784,199538,9578,-438959,1636548400.794828,1636548400.833524,16
631,0,337169,189913,71711,147426,284110,199756,9620,-439082,1636548400.7948303,1636548400.833524,16
632,0,337267,190006,71639,147518,284353,199984,9881,-438885,1636548400.7948437,1636548400.833524,16
633,0,337153,189813,71514,147402,284218,199906,9923,-438847,1636548400.794844,1636548400.833524,16
634,0,337029,189615,71370,147225,284080,199788,9877,-438841,1636548400.798179,1636548400.833524,16
635,0,337131,189654,71431,147249,284151,199878,10032,-438581,1636548400.7981806,1636548400.833524,16
636,0,337549,190105,71923,147818,284677,200352,10434,-438257,1636548400.8021803,1636548400.833524,16
637,0,337426,189981,71806,147761,284606,200287,10376,-438492,1636548400.802183,1636548400.833524,16
638,0,336874,189364,71228,147148,284054,199763,9784,-439039,1636548400.8074956,1636548400.833524,16
639,0,336734,189184,71093,147021,283951,199671,9554,-438945,1636548400.8074973,1636548400.833524,16
640,0,337459,189924,71891,147828,284773,200472,10215,-438596,1636548400.809685,1636548400.833524,16
641,0,337721,190192,72199,148132,285069,200746,10404,-438624,1636548400.8096876,1636548400.833524,16
642,0,337391,189736,71797,147594,284644,200376,10276,-438580,1636548400.813846,1636548400.833524,16
643,0,336553,188732,70521,145944,283606,199581,9768,-439285,1636548400.813857,1636548400.833524,16
644,0,336064,188196,69337,144389,282923,199171,9437,-439687,1636548400.8181913,1636548400.833524,16
645,0,336237,188268,68994,144204,283264,199474,9749,-439150,1636548400.8181949,1636548400.833524,16
646,0,336281,188281,69666,146149,283846,199666,9813,-439071,1636548400.8242333,1636548400.833524,16
647,0,336581,188972,71471,147867,284289,199968,9986,-438753,1636548400.8242383,1636548400.833524,16
648,0,336893,189555,72649,148863,285048,200401,10259,-438543,1636548400.8257613,1636548400.833524,16
649,0,337304,189884,72082,148042,284961,200529,10494,-438326,1636548400.8257625,1636548400.833524,16
650,0,337533,190016,72062,148033,284744,200424,10446,-438600,1636548400.8296723,1636548400.833524,16
651,0,337278,189729,71724,147639,284358,200024,10081,-440018,1636548400.829674,1636548400.833524,16
652,0,337020,189316,71266,147000,283860,199568,9791,-439379,1636548400.8336267,1636548400.833524,16
653,0,336951,189081,71027,146925,283749,199446,9701,-438351,1636548400.833629,1636548400.833524,16
654,0,336981,189169,71161,147090,283954,199648,9880,-438544,1636548400.8380015,1636548400.833524,16
655,0,336854,189122,71163,147106,283997,199679,9837,-438918,1636548400.8380055,1636548400.833524,16
656,0,337077,189270,71619,147861,284460,200028,9910,-438649,1636548400.8459074,1636548400.918212,17
657,0,337438,189678,71761,147888,284850,200518,10329,-438724,1636548400.8497488,1636548400.918212,17
658,0,337048,189245,71554,147444,284334,200071,10120,-439014,1636548400.849752,1636548400.918212,17
659,0,337338,189521,71834,147523,284428,200175,10233,-438839,1636548400.8537323,1636548400.918212,17
660,0,337961,190125,72022,147897,285096,200822,10883,-437755,1636548400.8537357,1636548400.918212,17
661,0,338834,190997,72535,148854,286133,201847,12069,-436692,1636548400.8576567,1636548400.918212,17
662,0,338373,190512,72570,148778,285713,201396,11702,-437874,1636548400.8576615,1636548400.918212,17
663,0,337012,188944,71589,147201,283921,199620,9967,-439666,1636548400.8618689,1636548400.918212,17
664,0,336229,187893,70333,145989,282816,198591,8693,-439441,1636548400.8618712,1636548400.918212,17
665,0,336211,188028,70386,146133,283041,198841,8635,-439082,1636548400.8714073,1636548400.918212,17
666,0,336663,188600,71010,146757,283816,199587,9338,-439230,1636548400.8714144,1636548400.918212,17
667,0,336788,188648,70876,146358,283931,199744,9668,-438920,1636548400.8759193,1636548400.918212,17
668,0,336757,188677,71074,146453,283858,199698,9592,-438909,1636548400.8759215,1636548400.918212,17
669,0,336693,188616,71209,147133,283907,199731,9616,-438976,1636548400.8759346,1636548400.918212,17
670,0,336738,188536,70996,147498,284089,199764,9614,-438986,1636548400.875935,1636548400.918212,17
671,0,336913,188496,70259,147130,283990,199796,9664,-438847,1636548400.8810008,1636548400.918212,17
672,0,336904,188382,70214,146949,283829,199741,9669,-438844,1636548400.8810103,1636548400.918212,17
673,0,336917,188732,71626,147138,283864,199735,9654,-438874,1636548400.881876,1636548400.918212,17
674,0,336926,188966,71890,147116,284036,199801,9723,-438830,1636548400.881878,1636548400.918212,17
675,0,336805,188774,71269,147161,284117,199843,9832,-438771,1636548400.8868084,1636548400.918212,17
676,0,336561,188497,71173,146881,283780,199551,9714,-438662,1636548400.8868108,1636548400.918212,17
677,0,336715,188598,71256,146986,283892,199665,9716,-438725,1636548400.891174,1636548400.918212,17
678,0,337054,188883,71473,147315,284165,199920,9782,-438716,1636548400.891176,1636548400.918212,17
679,0,336643,188379,70882,146885,283750,199554,9526,-439021,1636548400.8940568,1636548400.918212,17
680,0,336381,188123,70434,146442,283574,199459,9399,-439443,1636548400.8940592,1636548400.918212,17
681,0,336192,187949,70113,145606,283364,199334,9315,-439356,1636548401,1636548400.918212,17
682,0,336621,188335,70436,145207,283544,199618,9657,-438952,1636548400.897962,1636548400.918212,17
683,0,337156,188664,70774,146398,284109,200113,9976,-438787,1636548400.902037,1636548400.918212,17
684,0,337028,188311,70481,146920,284013,200018,9917,-438872,1636548400.9020388,1636548400.918212,17
685,0,337091,188596,71096,146569,283800,199915,9941,-438792,1636548400.9059267,1636548400.918212,17
686,0,337196,189076,72049,147066,284179,199976,9959,-438848,1636548400.9059327,1636548400.918212,17
687,0,336846,188658,71701,148036,284444,199854,9796,-438999,1636548400.9141247,1636548400.918212,17
688,0,336779,188503,71637,148032,284454,199899,9693,-438682,1636548400.914127,1636548400.918212,17
689,0,336998,188781,71795,147872,284619,200219,9910,-438089,1636548400.914138,1636548400.918212,17
690,0,337456,188978,72028,148259,285293,200954,10701,-437549,1636548400.9141386,1636548400.918212,17
691,0,337139,187434,70506,147751,285090,200878,10689,-439076,1636548400.9175353,1636548400.918212,17
692,0,336373,186569,69053,146817,284143,200076,9939,-441297,1636548400.9175365,1636548400.918212,17
693,0,336308,186516,68596,145061,283078,199328,9286,-439774,1636548400.9238453,1636548400.918212,17
694,0,336351,186649,68416,143669,282377,198901,9013,-437899,1636548400.9238496,1636548400.918212,17
695,0,336308,186516,68596,145061,283078,199328,9286,-439774,1636548400.9238453,1636548400.987537,18
696,0,336351,186649,68416,143669,282377,198901,9013,-437899,1636548400.9238496,1636548400.987537,18
697,0,336784,188018,70677,145751,283209,199329,9326,-438335,1636548400.9256349,1636548400.987537,18
698,0,336893,188598,72557,147770,284142,199596,9399,-438836,1636548400.9256363,1636548400.987537,18
699,0,336913,188382,71560,147393,284213,199682,9504,-438868,1636548400.9297607,1636548400.987537,18
700,0,336989,188410,71491,147204,283996,199663,9562,-438807,1636548400.929763,1636548400.987537,18
701,0,337084,188612,71792,147234,283935,199629,9573,-438835,1636548400.9342213,1636548400.987537,18
702,0,336995,188517,71672,147259,283973,199624,9575,-438989,1636548400.9342237,1636548400.987537,18
703,0,336903,188310,71509,147117,283902,199610,9621,-438981,1636548400.9378374,1636548400.987537,18
704,0,336917,188278,71441,147084,283890,199619,9704,-438830,1636548400.9378395,1636548400.987537,18
705,0,337253,188618,71748,147400,284196,199901,9945,-438216,1636548400.9425323,1636548400.987537,18
706,0,337269,188649,71749,147386,284197,199882,9806,-438415,1636548400.9425347,1636548400.987537,18
707,0,337019,188457,71541,147191,283999,199702,9531,-439217,1636548400.9468827,1636548400.987537,18
708,0,336891,188326,71419,147084,283928,199651,9557,-439051,1636548400.9468856,1636548400.987537,18
709,0,336845,188276,71397,147091,283939,199668,9576,-438980,1636548400.9498353,1636548400.987537,18
710,0,337054,188516,71811,147499,284284,199983,9811,-438816,1636548400.949837,1636548400.987537,18
711,0,337084,188512,71701,147385,284368,200076,9929,-438711,1636548401,1636548400.987537,18
712,0,336973,188323,71150,146803,284183,199985,9889,-438738,1636548400.9535124,1636548400.987537,18
713,0,336884,188239,70866,146922,284026,199840,9749,-438819,1636548400.957625,1636548400.987537,18
714,0,337043,188427,70923,147125,284178,199888,9782,-438734,1636548400.9576287,1636548400.987537,18
715,0,337168,188531,71250,146881,284151,199901,9818,-438671,1636548400.9667432,1636548400.987537,18
716,0,337067,188504,71898,147168,284021,199740,9709,-438722,1636548400.966745,1636548400.987537,18
717,0,337053,188467,71578,147029,284110,199791,9806,-438646,1636548400.9698327,1636548400.987537,18
718,0,337422,188840,71868,147464,284450,200258,10427,-438033,1636548400.9698343,1636548400.987537,18
719,0,337571,189084,72375,148310,284892,200624,11009,-436972,1636548400.9698477,1636548400.987537,18
720,0,337325,188840,72166,148004,284774,200452,10821,-437434,1636548400.9698482,1636548400.987537,18
721,0,336693,187828,71114,146906,283814,199600,10265,-438379,1636548400.9880946,1636548400.987537,18
722,0,336558,187350,70544,146388,283228,199063,9267,-439774,1636548400.9880977,1636548400.987537,18
723,0,337043,188121,71324,147079,283853,199623,9098,-440440,1636548400.988125,1636548400.987537,18
724,0,337304,188641,71924,147440,284353,200074,9665,-439406,1636548400.9881258,1636548400.987537,18
725,0,337085,188409,71684,147307,284353,200046,9866,-438944,1636548400.9881291,1636548400.987537,18
726,0,336549,187762,71117,146902,283748,199441,9464,-439061,1636548401,1636548400.987537,18
727,0,336339,187421,70781,146503,283288,198991,8953,-438817,1636548400.9881327,1636548400.987537,18
728,0,336586,187687,70912,146583,283468,199233,9120,-438730,1636548400.9881332,1636548400.987537,18
729,0,336741,187993,71624,147284,283933,199626,9529,-438673,1636548401.0035744,1636548401.072439,19
730,0,336783,188089,71792,147475,284018,199733,9663,-438728,1636548401.003575,1636548401.072439,19
731,0,336884,188187,71823,147473,284150,199884,9762,-438683,1636548401.0039663,1636548401.072439,19
732,0,336830,187789,71719,147367,284113,199837,9668,-438752,1636548401.003968,1636548401.072439,19
733,0,336742,187238,71577,147304,284094,199828,9640,-438804,1636548401,1636548401.072439,19
734,0,336861,187473,71563,147168,283911,199832,9698,-438678,1636548401.0056024,1636548401.072439,19
735,0,336925,187553,70724,146809,283581,199728,9703,-438642,1636548401.0095313,1636548401.072439,19
736,0,336994,187402,69016,146417,283491,199714,9739,-438599,1636548401.009534,1636548401.072439,19
737,0,336911,187435,69271,146321,283513,199564,9595,-438702,1636548401.0136628,1636548401.072439,19
738,0,336962,188096,71852,146871,283811,199546,9556,-438702,1636548401.0136654,1636548401.072439,19
739,0,337403,188762,72205,147020,284338,200033,9987,-438313,1636548401.0177772,1636548401.072439,19
740,0,337566,189191,73007,147475,284558,200260,10199,-438359,1636548401.017779,1636548401.072439,19
741,0,337491,188963,72835,148288,284821,200378,10275,-438572,1636548401.021494,1636548401.072439,19
742,0,337175,188290,72016,147515,284114,199809,9856,-438648,1636548401.0214996,1636548401.072439,19
743,0,336897,187881,71558,146909,283618,199353,9224,-439550,1636548401.025476,1636548401.072439,19
744,0,336879,187816,71517,146814,283576,199324,9269,-438684,1636548401.0254788,1636548401.072439,19
745,0,336941,187857,71542,146854,283631,199399,9413,-438432,1636548401.0295043,1636548401.072439,19
746,0,336943,187894,71593,146906,283690,199461,9477,-438640,1636548401.0295067,1636548401.072439,19
747,0,336937,187878,71594,146818,283670,199468,9518,-438698,1636548401.0338087,1636548401.072439,19
748,0,337106,188039,71711,146491,283765,199661,9681,-438583,1636548401.0338104,1636548401.072439,19
749,0,337129,188087,71657,146301,283848,199786,9821,-438539,1636548401.0380535,1636548401.072439,19
750,0,336984,187939,71593,147066,283881,199705,9749,-438593,1636548401.0381117,1636548401.072439,19
751,0,336975,187895,71701,147388,284056,199758,9676,-438629,1636548401.0413864,1636548401.072439,19
752,0,336770,187708,71658,146894,283798,199546,9394,-438883,1636548401.0413888,1636548401.072439,19
753,0,336636,187525,71510,146908,283739,199596,9495,-438862,1636548401.0471165,1636548401.072439,19
754,0,336607,187445,71507,147011,283846,199686,9560,-438829,1636548401.0471187,1636548401.072439,19
755,0,336726,187593,71378,147369,284112,199874,9661,-438774,1636548401.049728,1636548401.072439,19
756,0,336774,187606,71032,146930,283893,199750,9608,-438764,1636548401,1636548401.072439,19
757,0,337003,187942,71711,146256,283495,199623,9615,-438645,1636548401.053599,1636548401.072439,19
758,0,337050,188070,71591,146098,283551,199608,9589,-438652,1636548401.0536015,1636548401.072439,19
759,0,336944,187896,71019,147327,283899,199623,9560,-438766,1636548401.0587802,1636548401.072439,19
760,0,337073,187999,71726,147563,283951,199654,9599,-438706,1636548401.058784,1636548401.072439,19
761,0,337165,188137,72271,147033,283789,199638,9600,-438681,1636548401.0619247,1636548401.072439,19
762,0,337047,187900,71843,146959,283703,199568,9546,-438784,1636548401.0619287,1636548401.072439,19
763,0,337002,187832,71818,147298,283814,199562,9508,-438867,1636548401.0716677,1636548401.072439,19
764,0,337054,187993,71997,147270,283884,199650,9591,-438759,1636548401.071669,1636548401.072439,19
765,0,336842,187923,71903,147164,283853,199656,9611,-438791,1636548401.071679,1636548401.072439,19
766,0,336748,187963,71979,147258,283966,199760,9751,-438704,1636548401.0716798,1636548401.072439,19
767,0,336898,188079,72068,147321,284085,199898,9950,-438332,1636548401.0788684,1636548401.072439,19
768,0,336861,187909,71694,146895,283768,199664,9833,-438285,1636548401.0788715,1636548401.072439,19
769,0,336773,187660,71426,146514,283384,199329,9643,-438489,1636548401.0789087,1636548401.072439,19
770,0,336855,187739,71713,146921,283530,199373,9594,-438781,1636548401.0789096,1636548401.072439,19
771,0,336898,188079,72068,147321,284085,199898,9950,-438332,1636548401.0788684,1636548401.134922,20
772,0,336861,187909,71694,146895,283768,199664,9833,-438285,1636548401.0788715,1636548401.134922,20
773,0,336773,187660,71426,146514,283384,199329,9643,-438489,1636548401.0789087,1636548401.134922,20
774,0,336855,187739,71713,146921,283530,199373,9594,-438781,1636548401.0789096,1636548401.134922,20
775,0,336910,187892,71843,147029,283668,199502,9383,-438956,1636548401.0815458,1636548401.134922,20
776,0,336793,187781,71822,146919,283668,199528,9371,-438947,1636548401.0815485,1636548401.134922,20
777,0,336796,187830,71938,147126,283813,199618,9488,-438789,1636548401.0853083,1636548401.134922,20
778,0,336663,187728,71905,147153,283878,199634,9476,-438899,1636548401.0853105,1636548401.134922,20
779,0,336554,187598,71843,147017,283847,199616,9481,-438914,1636548401.0894856,1636548401.134922,20
780,0,336613,187623,71893,147037,283823,199628,9505,-438844,1636548401.0894907,1636548401.134922,20
781,0,336878,187385,71845,147273,284045,199823,9733,-438479,1636548401.093773,1636548401.134922,20
782,0,337155,187101,71897,147544,284213,199989,9970,-438017,1636548401.0937755,1636548401.134922,20
783,0,337150,187019,71884,147314,284029,199871,9969,-438293,1636548401.0974188,1636548401.134922,20
784,0,337038,187289,71611,146951,283773,199654,9908,-438703,1636548401.0974207,1636548401.134922,20
785,0,336906,187452,71153,146476,283382,199326,9601,-438789,1636548401.105516,1636548401.134922,20
786,0,336863,187689,71370,146588,283465,199356,9331,-439012,1636548401.105518,1636548401.134922,20
787,0,336811,187718,71754,147094,283708,199557,9528,-438235,1636548401.1055293,1636548401.134922,20
788,0,336429,187384,71458,146949,283464,199327,9363,-438617,1636548401.1055295,1636548401.134922,20
789,0,336132,187178,71130,146665,283348,199148,9096,-439065,1636548401.109619,1636548401.134922,20
790,0,336132,187222,71264,146693,283283,199119,9154,-438936,1636548401.109621,1636548401.134922,20
791,0,336699,187646,71663,146991,283643,199555,9569,-438482,1636548401.113593,1636548401.134922,20
792,0,337318,187923,71643,147070,283968,200028,10018,-438087,1636548401.1135955,1636548401.134922,20
793,0,337209,187517,70712,146188,283514,199721,9769,-438422,1636548401.117648,1636548401.134922,20
794,0,337063,187558,71437,146753,283573,199532,9524,-438707,1636548401.1176507,1636548401.134922,20
795,0,337186,188002,72422,147316,283826,199614,9626,-438529,1636548401.126062,1636548401.134922,20
796,0,337098,187836,71686,146953,283777,199602,9626,-438566,1636548401.1260655,1636548401.134922,20
797,0,337016,187665,71363,146861,283618,199558,9613,-438592,1636548401.126151,1636548401.134922,20
798,0,336971,187567,71784,147413,283645,199580,9636,-438594,1636548401.1261537,1636548401.134922,20
799,0,336954,187719,72404,147523,283726,199569,9631,-438635,1636548401.1296604,1636548401.134922,20
800,0,336909,187674,72139,147260,283716,199594,9679,-438628,1636548401.1296623,1636548401.134922,20
801,0,336738,187460,71884,147189,283703,199566,9652,-438696,1636548401.1333404,1636548401.134922,20
802,0,336689,187372,71750,147324,283843,199659,9723,-438660,1636548401.1333418,1636548401.134922,20
803,0,336599,187158,71395,147304,283812,199679,9745,-438665,1636548401.140313,1636548401.134922,20
804,0,336549,187005,71162,147134,283795,199706,9774,-438659,1636548401.1403177,1636548401.134922,20
805,0,336732,187209,71346,146256,283263,199256,9626,-438566,1636548401.1493435,1636548401.219542,21
806,0,336481,187124,71046,146279,283116,199159,9527,-438663,1636548401.1556406,1636548401.219542,21
807,0,336785,187388,70876,147159,283534,199559,9768,-438487,1636548401.1556435,1636548401.219542,21
808,0,336684,187281,71521,146858,283476,199437,9656,-438622,1636548401.157805,1636548401.219542,21
809,0,336614,187251,72338,146233,283327,199278,9496,-438789,1636548401.1578107,1636548401.219542,21
810,0,336921,187648,72619,147795,283997,199721,9766,-438604,1636548401.1616735,1636548401.219542,21
811,0,336975,187704,72345,146905,283801,199753,9842,-438551,1636548401.1616783,1636548401.219542,21
812,0,336944,187684,72130,146362,283697,199762,9893,-438522,1636548401.1653557,1636548401.219542,21
813,0,336676,187491,72131,147784,283956,199648,9739,-438701,1636548401.165358,1636548401.219542,21
814,0,336643,187436,72128,147982,284058,199671,9741,-438706,1636548401.1723044,1636548401.219542,21
815,0,336616,187354,71985,147370,283788,199559,9668,-438733,1636548401.1723068,1636548401.219542,21
816,0,336764,187456,72081,147314,283797,199592,9722,-438638,1636548401.1735096,1636548401.219542,21
817,0,336829,187532,71880,147043,283621,199494,9676,-438632,1636548401.1735137,1636548401.219542,21
818,0,336917,187694,71891,146911,283536,199459,9672,-438611,1636548401.1830873,1636548401.219542,21
819,0,337004,187793,72139,146691,283651,199528,9717,-438574,1636548401.1830924,1636548401.219542,21
820,0,336934,187793,72327,147256,283702,199540,9715,-438607,1636548401.1831193,1636548401.219542,21
821,0,336819,187644,72253,147631,283669,199497,9639,-438701,1636548401.1831198,1636548401.219542,21
822,0,336724,187448,72017,147553,283763,199518,9618,-438761,1636548401.185148,1636548401.219542,21
823,0,336711,187376,71924,147279,283674,199481,9608,-438766,1636548401.185151,1636548401.219542,21
824,0,336647,187306,71983,147363,283786,199513,9603,-438803,1636548401.1895957,1636548401.219542,21
825,0,336763,187173,72263,147477,283738,199551,9670,-438730,1636548401.1895998,1636548401.219542,21
826,0,336724,186842,72063,147344,283656,199526,9683,-438742,1636548401.1932483,1636548401.219542,21
827,0,336566,187065,71976,147287,283666,199527,9724,-438649,1636548401,1636548401.219542,21
828,0,336460,187274,72001,147260,283637,199503,9761,-438504,1636548401.1971233,1636548401.219542,21
829,0,336620,187459,72152,147322,283669,199558,9883,-438283,1636548401.197126,1636548401.219542,21
830,0,336955,187702,72370,147432,283756,199670,9967,-438257,1636548401.2012615,1636548401.219542,21
831,0,337051,187941,72564,147513,283809,199658,9720,-438864,1636548401.2012804,1636548401.219542,21
832,0,337046,187961,72576,147421,283711,199578,9642,-438856,1636548401.2057548,1636548401.219542,21
833,0,336983,187718,72341,147258,283534,199411,9613,-438822,1636548401.2057664,1636548401.219542,21
834,0,336774,187301,71883,146811,283056,198945,9348,-438732,1636548401.2095904,1636548401.219542,21
835,0,336854,187251,71775,146728,283023,198898,9149,-438862,1636548401.2095952,1636548401.219542,21
836,0,337162,187546,72123,147077,283453,199364,9487,-438771,1636548401.2139606,1636548401.219542,21
837,0,336935,187287,72137,147188,283583,199431,9601,-438681,1636548401.2139652,1636548401.219542,21
838,0,336432,186949,72275,147351,283746,199536,9606,-438751,1636548401.2170727,1636548401.219542,21
839,0,336301,186957,72620,147721,284080,199778,9699,-438812,1636548401.2170815,1636548401.219542,21
840,0,336516,187260,72669,147695,284159,199869,9763,-438772,1636548401.2211983,1636548401.219542,21
841,0,336961,187369,71764,146902,283838,199750,9773,-438591,1636548401.2212024,1636548401.219542,21
842,0,337234,187454,71103,146339,283419,199536,9725,-438489,1636548401.2260437,1636548401.219542,21
843,0,337191,187736,72111,147236,283268,199230,9519,-438616,1636548401.2260463,1636548401.219542,21
844,0,337048,187526,73233,147564,283578,199313,9689,-438521,1636548401.2331889,1636548401.288648,22
845,0,336958,187343,73231,147549,283568,199344,9613,-438672,1636548401.2331913,1636548401.288648,22
846,0,337119,187457,73159,147814,283899,199683,9826,-438620,1636548401.2371693,1636548401.288648,22
847,0,337419,187692,73404,148156,284287,200070,10218,-438329,1636548401.2371712,1636548401.288648,22
848,0,337428,187166,73373,148224,284388,200170,10274,-438302,1636548401.2438676,1636548401.288648,22
849,0,337090,186750,73011,147907,284099,199870,9964,-438554,1636548401,1636548401.288648,22
850,0,336777,186884,72679,147524,283744,199539,9770,-438719,1636548401.2453792,1636548401.288648,22
851,0,336833,187240,72654,147445,283660,199459,9769,-438673,1636548401.2453816,1636548401.288648,22
852,0,337062,187480,72582,147383,283715,199531,9842,-438581,1636548401.2493856,1636548401.288648,22
853,0,337197,187510,72575,147358,283748,199580,9925,-438466,1636548401.2493875,1636548401.288648,22
854,0,337381,187553,73049,147431,283656,199561,9998,-438357,1636548401.253245,1636548401.288648,22
855,0,337440,187548,72841,146633,283543,199544,10038,-438342,1636548401.2532473,1636548401.288648,22
856,0,336974,187430,72743,146151,283004,198974,9504,-438820,1636548401.257485,1636548401.288648,22
857,0,337073,187508,72787,147320,283541,199268,9624,-438838,1636548401.257491,1636548401.288648,22
858,0,337134,187396,72991,147911,283777,199446,9790,-438689,1636548401.2614944,1636548401.288648,22
859,0,337041,187292,73004,147818,283711,199402,9733,-438759,1636548401.2614965,1636548401.288648,22
860,0,336963,187248,72872,147604,283639,199377,9709,-438787,1636548401.265446,1636548401.288648,22
861,0,336894,187191,72811,147502,283609,199373,9688,-438807,1636548401.2654479,1636548401.288648,22
862,0,336808,187114,72784,147487,283628,199400,9699,-438849,1636548401.2694807,1636548401.288648,22
863,0,336820,187111,72813,147525,283660,199430,9715,-438873,1636548401.2694829,1636548401.288648,22
864,0,336826,187076,72791,147554,283719,199466,9730,-438893,1636548401.2804382,1636548401.288648,22
865,0,336935,187150,72796,147482,283711,199458,9721,-438866,1636548401.2804425,1636548401.288648,22
866,0,337046,187269,72847,147416,283608,199409,9723,-438814,1636548401.2804627,1636548401.288648,22
867,0,337092,187406,72963,147501,283657,199482,9805,-438709,1636548401.2804632,1636548401.288648,22
868,0,337046,187520,73011,147476,283635,199472,9817,-438639,1636548401.2852848,1636548401.288648,22
869,0,336859,187299,72826,147279,283436,199261,9633,-438769,1636548401.2852871,1636548401.288648,22
870,0,336791,187103,72754,147237,283460,199241,9586,-438836,1636548401.2852974,1636548401.288648,22
871,0,336767,186715,72708,147313,283581,199323,9638,-438874,1636548401.2852979,1636548401.288648,22
872,0,336622,186180,72641,147422,283773,199435,9701,-438901,1636548401.289425,1636548401.288648,22
873,0,336431,186338,72614,147394,283768,199458,9697,-438954,1636548401.2894292,1636548401.288648,22
874,0,336488,186683,72598,147221,283624,199339,9592,-439023,1636548401.2948356,1636548401.288648,22
875,0,336762,186991,72674,146401,283356,199317,9641,-438906,1636548401.294839,1636548401.288648,22
876,0,337004,187096,72415,145406,283059,199189,9593,-438847,1636548401.2970777,1636548401.288648,22
877,0,337116,187202,72438,146812,283265,199084,9502,-438839,1636548401.2970805,1636548401.288648,22
878,0,336762,186991,72674,146401,283356,199317,9641,-438906,1636548401.294839,1636548401.373616,23
879,0,337004,187096,72415,145406,283059,199189,9593,-438847,1636548401.2970777,1636548401.373616,23
880,0,337116,187202,72438,146812,283265,199084,9502,-438839,1636548401.2970805,1636548401.373616,23
881,0,337094,187283,72802,147939,283488,199093,9495,-438863,1636548401.3010151,1636548401.373616,23
882,0,337036,187252,72808,147457,283419,199105,9474,-438933,1636548401.3010166,1636548401.373616,23
883,0,337041,187243,72770,147201,283380,199138,9503,-438910,1636548401.305076,1636548401.373616,23
884,0,336988,187160,72734,147138,283420,199158,9519,-438924,1636548401.305078,1636548401.373616,23
885,0,337024,187221,72803,146939,283456,199223,9598,-438864,1636548401.3098252,1636548401.373616,23
886,0,336979,187142,72769,146657,283419,199255,9614,-438886,1636548401.309828,1636548401.373616,23
887,0,336854,186993,72716,147103,283537,199269,9605,-438937,1636548401.3136668,1636548401.373616,23
888,0,336804,186916,72701,147451,283674,199303,9596,-438969,1636548401.3136723,1636548401.373616,23
889,0,336748,186878,72630,147083,283544,199239,9533,-439021,1636548401.317432,1636548401.373616,23
890,0,336790,186973,72608,146941,283480,199198,9521,-438973,1636548401.3174348,1636548401.373616,23
891,0,336961,187105,72698,147013,283486,199269,9605,-438851,1636548401.3217661,1636548401.373616,23
892,0,336789,186906,72489,146799,283346,199149,9498,-438991,1636548401.3217688,1636548401.373616,23
893,0,336710,186869,72451,146716,283245,199075,9476,-439041,1636548401.3254812,1636548401.373616,23
894,0,336853,187004,72718,147065,283514,199209,9611,-438920,1636548401.325483,1636548401.373616,23
895,0,336928,187106,72943,147123,283601,199270,9671,-438876,1636548401.3295605,1636548401.373616,23
896,0,336831,186996,72806,147036,283483,199162,9549,-439001,1636548401.3295634,1636548401.373616,23
897,0,336879,186963,72628,146868,283435,199144,9551,-439004,1636548401.3334184,1636548401.373616,23
898,0,336842,186844,72423,146504,283296,199051,9520,-439046,1636548401.3334205,1636548401.373616,23
899,0,336857,186856,72541,146309,283348,199055,9534,-438973,1636548401.3371215,1636548401.373616,23
900,0,336868,186801,72364,146424,283219,199034,9563,-438883,1636548401.3371248,1636548401.373616,23
901,0,336801,186794,72479,146919,283276,199091,9641,-438810,1636548401.3414261,1636548401.373616,23
902,0,336733,186862,72747,146875,283270,198981,9561,-438910,1636548401.341428,1636548401.373616,23
903,0,336739,186903,72699,146766,283277,198991,9471,-439184,1636548401.3450303,1636548401.373616,23
904,0,336874,186994,72652,146841,283339,199054,9523,-439132,1636548401.3450336,1636548401.373616,23
905,0,337034,187157,72764,146850,283363,199084,9563,-439029,1636548401.3493493,1636548401.373616,23
906,0,336798,186915,72569,146668,283199,198916,9382,-439230,1636548401.3493512,1636548401.373616,23
907,0,336719,186851,72557,146691,283253,198954,9415,-439272,1636548401.353418,1636548401.373616,23
908,0,336775,186908,72525,146718,283371,199075,9543,-439129,1636548401.3534203,1636548401.373616,23
909,0,336614,186714,72515,146691,283371,199026,9485,-439268,1636548401.357327,1636548401.373616,23
910,0,336495,186618,72668,146756,283358,198980,9439,-439329,1636548401.357338,1636548401.373616,23
911,0,336606,186731,72574,146756,283434,199103,9551,-439199,1636548401.3639145,1636548401.373616,23
912,0,336728,186859,72580,146832,283496,199134,9599,-439169,1636548401.3639176,1636548401.373616,23
913,0,336728,186859,72580,146832,283496,199134,9599,-439169,1636548401.3652732,1636548401.373616,23
914,0,336728,186859,72580,146832,283496,199134,9599,-439169,1636548401.3652742,1636548401.373616,23
915,0,336728,186859,72580,146832,283496,199134,9599,-439169,1636548401.365275,1636548401.373616,23
916,0,336516,186704,72399,146556,283154,198853,9396,-439301,1636548401.372985,1636548401.373616,23
917,0,336676,186818,72336,146512,283068,198749,9324,-439294,1636548401.3729863,1636548401.373616,23
918,0,336913,187000,72438,146664,283138,198768,9368,-439176,1636548401.3781707,1636548401.373616,23
919,0,337036,187083,72551,146810,283322,198908,9508,-439057,1636548401.3781931,1636548401.373616,23
920,0,336913,187000,72438,146664,283138,198768,9368,-439176,1636548401.3781707,1636548401.436102,24
921,0,337036,187083,72551,146810,283322,198908,9508,-439057,1636548401.3781931,1636548401.436102,24
922,0,336969,186958,72484,146578,283231,198943,9596,-439033,1636548401.3895552,1636548401.436102,24
923,0,336809,186766,72240,146432,283071,198862,9510,-439176,1636548401.389564,1636548401.436102,24
924,0,336936,186957,72460,146956,283313,198948,9456,-439137,1636548401.3896003,1636548401.436102,24
925,0,337075,187000,72491,147157,283398,198938,9395,-439046,1636548401.3896008,1636548401.436102,24
926,0,337056,186758,72335,146806,283258,198869,9434,-439053,1636548401.3896046,1636548401.436102,24
927,0,336906,186352,72475,146946,283368,198994,9548,-438990,1636548401.3896053,1636548401.436102,24
928,0,336569,186420,72359,146869,283338,198964,9516,-439059,1636548401.3934653,1636548401.436102,24
929,0,336568,186804,72394,146902,283366,198993,9541,-439047,1636548401.393468,1636548401.436102,24
930,0,336658,186898,72348,146811,283330,198936,9466,-439091,1636548401.397157,1636548401.436102,24
931,0,336804,186999,72424,146832,283353,198945,9473,-439086,1636548401.3971596,1636548401.436102,24
932,0,336948,187126,72538,146878,283413,199013,9576,-438968,1636548401.4013488,1636548401.436102,24
933,0,336992,187166,72543,146865,283460,199053,9594,-438977,1636548401.4013512,1636548401.436102,24
934,0,337129,187288,72669,146924,283454,198976,9624,-438919,1636548401.4056883,1636548401.436102,24
935,0,337008,187119,72543,146746,283266,198762,9583,-438981,1636548401.405692,1636548401.436102,24
936,0,337051,187054,72493,146777,283376,198879,9598,-438982,1636548401.4099298,1636548401.436102,24
937,0,337123,187101,72518,146786,283359,198899,9594,-438933,1636548401.4099324,1636548401.436102,24
938,0,337158,187143,72566,146860,283428,198796,9589,-438894,1636548401.414656,1636548401.436102,24
939,0,337064,187044,72508,146829,283403,198663,9499,-438956,1636548401.4146585,1636548401.436102,24
940,0,336837,186996,72526,146927,283549,199163,9604,-438942,1636548401.417307,1636548401.436102,24
941,0,336755,186961,72536,147073,283762,199418,9668,-438958,1636548401.4173093,1636548401.436102,24
942,0,336909,187006,72506,146964,283562,199296,9676,-438923,1636548401.4209933,1636548401.436102,24
943,0,336883,186961,72405,146723,283368,199128,9618,-438951,1636548401.4209988,1636548401.436102,24
944,0,336733,186868,72286,145789,283142,199075,9651,-438959,1636548401.4256868,1636548401.436102,24
945,0,336685,186813,72208,145206,282976,199041,9698,-438951,1636548401.4256957,1636548401.436102,24
946,0,336434,186591,72268,147243,283543,199026,9612,-439104,1636548401.4290571,1636548401.436102,24
947,0,336312,186493,72374,147874,283867,199117,9649,-439149,1636548401.4290595,1636548401.436102,24
948,0,336562,186595,72525,147393,283864,199153,9653,-439075,1636548401.4329016,1636548401.436102,24
949,0,336684,186532,72402,147074,283648,199111,9628,-439091,1636548401.4329033,1636548401.436102,24
950,0,336706,186594,72278,146916,283377,199107,9655,-439056,1636548401.436908,1636548401.436102,24
951,0,336908,186844,72257,146892,283436,199121,9609,-438993,1636548401.4369092,1636548401.436102,24
952,0,337204,187156,72447,146993,283460,199083,9483,-438911,1636548401.4408948,1636548401.436102,24
953,0,337120,187076,72322,146813,283185,198879,9309,-439065,1636548401.4408977,1636548401.436102,24
954,0,337053,187023,72333,147155,283445,199008,9582,-438980,1636548401.4489212,1636548401.520783,25
955,0,337064,187054,72518,147139,283436,198686,9561,-438956,1636548401.4535902,1636548401.520783,25
956,0,337103,187064,72571,147112,283405,198468,9597,-438913,1636548401.4535933,1636548401.520783,25
957,0,337114,187013,72505,147114,283348,198488,9635,-438918,1636548401.4569764,1636548401.520783,25
958,0,337102,186985,72504,147123,283316,198585,9628,-438951,1636548401.4569783,1636548401.520783,25
959,0,337181,187051,72586,147239,283413,198811,9721,-438871,1636548401.460791,1636548401.520783,25
960,0,337029,186903,72449,147138,283305,198996,9692,-438972,1636548401.4607952,1636548401.520783,25
961,0,336823,186740,72349,147109,283341,199379,9776,-439059,1636548401.4651961,1636548401.520783,25
962,0,336763,186684,72351,147170,283401,199364,9733,-439043,1636548401.4651983,1636548401.520783,25
963,0,336751,186701,72383,147244,283431,199213,9527,-439082,1636548401.4693599,1636548401.520783,25
964,0,336769,186678,72350,147213,283379,199219,9538,-439077,1636548401.4693623,1636548401.520783,25
965,0,336874,186738,72398,147233,283343,199069,9618,-438996,1636548401.4733253,1636548401.520783,25
966,0,336901,186746,72438,147287,283323,198839,9586,-438994,1636548401.4733274,1636548401.520783,25
967,0,336926,186813,72589,147476,283476,199034,9698,-438909,1636548401.4901044,1636548401.520783,25
968,0,337039,186831,72629,147514,283483,199098,9794,-438845,1636548401.4901085,1636548401.520783,25
969,0,337129,186889,72687,147584,283508,198964,9792,-438809,1636548401.4901307,1636548401.520783,25
970,0,336996,186793,72615,147493,283413,198825,9729,-438925,1636548401.4901311,1636548401.520783,25
971,0,336943,186715,72543,147450,283475,199104,9713,-438952,1636548401.4901342,1636548401.520783,25
972,0,336956,186718,72549,147505,283492,198928,9494,-438957,1636548401.4901345,1636548401.520783,25
973,0,336954,186688,72561,147562,283528,198918,9491,-438953,1636548401.490137,1636548401.520783,25
974,0,336948,186589,72504,147560,283478,198956,9554,-439012,1636548401.4901378,1636548401.520783,25
975,0,336943,186586,72493,147549,283407,198954,9601,-438971,1636548401.4943924,1636548401.520783,25
976,0,337033,186665,72586,147700,283614,199218,9769,-438873,1636548401.4943948,1636548401.520783,25
977,0,336979,186645,72642,147759,283617,199279,9773,-438939,1636548401.4968443,1636548401.520783,25
978,0,337032,186658,72641,147736,283570,199254,9781,-438890,1636548401.496846,1636548401.520783,25
979,0,337053,186609,72645,147825,283688,199359,9819,-438833,1636548401.5031252,1636548401.520783,25
980,0,336999,186468,72594,147871,283756,199390,9798,-438878,1636548401.503127,1636548401.520783,25
981,0,336958,186386,72515,147790,283632,199269,9785,-438847,1636548401.504794,1636548401.520783,25
982,0,337009,186452,72513,147829,283636,199279,9840,-438789,1636548401.5047953,1636548401.520783,25
983,0,337026,186502,72479,147798,283579,199200,9783,-438829,1636548401.5093887,1636548401.520783,25
984,0,337157,186598,72447,147812,283597,199208,9808,-438774,1636548401.509398,1636548401.520783,25
985,0,337116,186728,72513,147931,283699,199304,9910,-438704,1636548401.5144885,1636548401.520783,25
986,0,337182,186822,72618,148035,283744,199354,10006,-438546,1636548401.5144916,1636548401.520783,25
987,0,336923,186746,72670,148088,283745,199338,10027,-438493,1636548401.5168884,1636548401.520783,25
988,0,336746,186680,72728,148133,283753,199313,10038,-438503,1636548402,1636548401.520783,25
989,0,337047,186663,72682,148122,283743,199179,10011,-438493,1636548401.521644,1636548401.520783,25
990,0,337216,186561,72551,148007,283573,199023,9824,-438689,1636548401.5216491,1636548401.520783,25
991,0,337263,186628,72563,148023,283501,199030,9788,-438702,1636548401.5264122,1636548401.520783,25
992,0,337249,186714,72660,148184,283679,199229,9909,-438649,1636548401.5264156,1636548401.520783,25
993,0,337063,186461,72455,148034,283585,199215,9903,-438678,1636548401.5373456,1636548401.598934,26
994,0,337124,186373,72448,148139,283668,199261,9943,-438603,1636548401.5374143,1636548401.598934,26
995,0,337133,186325,72461,148141,283583,199223,9956,-438584,1636548401.5374165,1636548401.598934,26
996,0,337090,186283,72477,148152,283565,199164,9936,-438627,1636548401.5374255,1636548401.598934,26
997,0,337123,186350,72566,148244,283646,199233,10023,-438575,1636548401.537426,1636548401.598934,26
998,0,337149,186397,72671,148387,283766,199336,10079,-438541,1636548401.5408213,1636548401.598934,26
999,0,337074,186315,72553,148264,283651,199199,9972,-438643,1636548401.5408237,1636548401.598934,26
1000,0,337154,186312,72569,148285,283664,199189,9991,-438607,1636548401.5470247,1636548401.598934,26
1001,0,337179,185853,72501,148354,283738,199144,10000,-438592,1636548401.5470293,1636548401.598934,26
1002,0,337155,185817,72419,148228,283607,199085,9984,-438582,1636548401.5490572,1636548401.598934,26
1003,0,337229,186263,72468,148080,283537,199164,10052,-438524,1636548401.5490592,1636548401.598934,26
1004,0,337177,186407,72485,148267,283687,199182,10039,-438569,1636548401.5535233,1636548401.598934,26
1005,0,337113,186454,72573,148478,283668,199148,10014,-438617,1636548401.5535254,1636548401.598934,26
1006,0,337068,186345,72488,148218,283499,199148,10039,-438659,1636548401.5572531,1636548401.598934,26
1007,0,337093,186314,72519,148364,283631,199163,10016,-438648,1636548401.5572553,1636548401.598934,26
1008,0,337219,186474,72660,148461,283694,199224,10076,-438549,1636548401.5661592,1636548401.598934,26
1009,0,337194,186469,72641,148423,283586,199146,10069,-438608,1636548401.5661616,1636548401.598934,26
1010,0,337187,186479,72638,148446,283561,199139,10059,-438668,1636548401.5661745,1636548401.598934,26
1011,0,337211,186549,72762,148597,283673,199079,10095,-438610,1636548401.5661752,1636548401.598934,26
1012,0,337226,186514,72755,148629,283680,198856,9990,-438589,1636548401.5693357,1636548401.598934,26
1013,0,337226,186504,72746,148653,283664,198866,10011,-438570,1636548401.5693376,1636548401.598934,26
1014,0,337191,186439,72713,148661,283643,198934,10018,-438631,1636548401.5730996,1636548401.598934,26
1015,0,337261,186484,72774,148702,283643,198966,10038,-438622,1636548401.5731015,1636548401.598934,26
1016,0,337129,186318,72627,148583,283573,199169,10034,-438732,1636548401.5766509,1636548401.598934,26
1017,0,337128,186276,72618,148656,283661,199299,10116,-438714,1636548401.5766532,1636548401.598934,26
1018,0,337210,186344,72716,148751,283647,199189,9980,-438699,1636548401.5875552,1636548401.598934,26
1019,0,337107,186268,72569,148682,283584,199123,9863,-438801,1636548401.5875678,1636548401.598934,26
1020,0,336937,186202,72375,148579,283469,199097,9845,-438839,1636548401.5876503,1636548401.598934,26
1021,0,336761,185994,72269,148573,283481,199138,9926,-438787,1636548401.5877333,1636548401.598934,26
1022,0,336811,185491,72180,148573,283447,199123,9985,-438704,1636548401.5937548,1636548401.598934,26
1023,0,336914,185678,72279,148630,283461,199089,9970,-438716,1636548401.5937567,1636548401.598934,26
1024,0,337080,186197,72496,148728,283484,199043,9999,-438665,1636548401.5937676,1636548401.598934,26
1025,0,337049,186316,72448,148707,283533,198971,10001,-438669,1636548401.5937681,1636548401.598934,26
1026,0,337014,186283,72383,148522,283302,198693,9924,-438725,1636548401.5966735,1636548401.598934,26
1027,0,337121,186351,72420,148522,283268,198647,9939,-438722,1636548401.596675,1636548401.598934,26
1028,0,337171,185990,72367,148553,283405,198874,10097,-438626,1636548401.6007712,1636548401.598934,26
1029,0,337041,185558,72283,148471,283375,199001,10061,-438709,1636548401.600773,1636548401.598934,26
1030,0,336869,185784,72343,148558,283430,199160,10004,-438829,1636548401.6046462,1636548401.598934,26
1031,0,336764,185850,72120,148416,283402,199341,9906,-438925,1636548402,1636548401.598934,26
1032,0,337077,186329,72248,148322,283199,198813,9788,-438865,1636548401.608784,1636548401.674148,27
1033,0,337204,186565,72449,148198,283013,198350,9734,-438787,1636548401.6141293,1636548401.674148,27
1034,0,337261,186773,72635,148134,282904,198349,9735,-438747,1636548401.6141317,1636548401.674148,27
1035,0,337295,186869,72841,148206,282934,198795,9745,-438783,1636548401.6196036,1636548401.674148,27
1036,0,337313,186678,72739,148289,283123,199059,9913,-438814,1636548401.6196156,1636548401.674148,27
1037,0,337347,186501,72683,148507,283541,199276,10139,-438756,1636548401.620848,1636548401.674148,27
1038,0,337386,186418,72722,148608,283659,199204,10096,-438739,1636548401.6208537,1636548401.674148,27
1039,0,337430,186423,72654,148444,283441,199019,9801,-438736,1636548401.624768,1636548401.674148,27
1040,0,337378,186446,72552,148228,283244,198848,9533,-438857,1636548401.6247704,1636548401.674148,27
1041,0,337714,186563,72562,148143,283176,198874,9662,-438803,1636548401.6291325,1636548401.674148,27
1042,0,337514,186421,72511,148074,283089,198884,9674,-438894,1636548401.6291356,1636548401.674148,27
1043,0,337149,186224,72555,148216,283275,199005,9761,-438889,1636548401.6326358,1636548401.674148,27
1044,0,337244,186352,72712,148333,283288,198973,9727,-438813,1636548401.6326392,1636548401.674148,27
1045,0,337186,186236,72618,148193,283193,198884,9650,-438887,1636548401.6371267,1636548401.674148,27
1046,0,337237,186165,72550,148142,283210,198904,9711,-438866,1636548401.6371293,1636548401.674148,27
1047,0,337302,186204,72576,148168,283224,198936,9762,-438814,1636548401.6410847,1636548401.674148,27
1048,0,337158,186096,72521,148122,283188,198884,9705,-438878,1636548401.6410873,1636548401.674148,27
1049,0,337100,186068,72537,148131,283209,198882,9671,-438901,1636548401.6447544,1636548401.674148,27
1050,0,337120,186083,72528,148109,283155,198894,9663,-438910,1636548401.6447568,1636548401.674148,27
1051,0,337163,186049,72441,148054,283141,198896,9641,-438978,1636548401.6486819,1636548401.674148,27
1052,0,337316,186156,72541,148178,283251,198946,9633,-438899,1636548401.6486835,1636548401.674148,27
1053,0,337294,186161,72556,148226,283260,198935,9571,-438909,1636548401.6533108,1636548401.674148,27
1054,0,337213,186066,72459,148126,283154,198878,9538,-438996,1636548401.6533132,1636548401.674148,27
1055,0,337215,186072,72461,148129,283141,198880,9558,-438984,1636548401.6571891,1636548401.674148,27
1056,0,337316,186139,72547,148213,283224,198964,9619,-438909,1636548401.6571915,1636548401.674148,27
1057,0,337441,186163,72602,148251,283256,199001,9645,-438854,1636548401.6626332,1636548401.674148,27
1058,0,337312,186001,72477,148142,283118,198873,9489,-438974,1636548401.662649,1636548401.674148,27
1059,0,337378,186050,72531,148200,283161,198909,9499,-438972,1636548401.6649446,1636548401.674148,27
1060,0,337359,186072,72514,148129,283116,198896,9503,-438947,1636548401.6649516,1636548401.674148,27
1061,0,337104,185964,72414,148090,283068,198858,9449,-439002,1636548401.6686192,1636548401.674148,27
1062,0,336867,185908,72370,148022,282986,198788,9366,-439090,1636548401.6686225,1636548401.674148,27
1063,0,336942,185936,72410,148066,283012,198818,9391,-439054,1636548401.6727931,1636548401.674148,27
1064,0,337100,185914,72392,148050,283031,198818,9383,-439044,1636548401.6727955,1636548401.674148,27
1065,0,337129,185880,72356,148024,283010,198805,9338,-439068,1636548401.676844,1636548401.674148,27
1066,0,337149,185881,72364,148044,283031,198824,9343,-439052,1636548401.6768556,1636548401.674148,27
1067,0,337180,185888,72374,148053,283036,198833,9334,-439031,1636548401.681105,1636548401.674148,27
1068,0,337058,185801,72293,147982,282966,198772,9248,-439142,1636548401.6811104,1636548401.674148,27
1069,0,337180,185888,72374,148053,283036,198833,9334,-439031,1636548401.681105,1636548401.743216,28
1070,0,337058,185801,72293,147982,282966,198772,9248,-439142,1636548401.6811104,1636548401.743216,28
1071,0,336975,185708,72213,147900,282892,198700,9175,-439229,1636548401.6960826,1636548401.743216,28
1072,0,337041,185754,72249,147948,282923,198723,9218,-439159,1636548401.696086,1636548401.743216,28
1073,0,336984,185684,72175,147889,282845,198656,9158,-439212,1636548401.696108,1636548401.743216,28
1074,0,336986,185659,72158,147871,282824,198649,9151,-439234,1636548401.6961086,1636548401.743216,28
1075,0,337026,185711,72233,147965,282905,198724,9214,-439202,1636548402,1636548401.743216,28
1076,0,337007,185694,72229,147979,282921,198734,9210,-439226,1636548401.698953,1636548401.743216,28
1077,0,336971,185658,72204,147956,282909,198728,9214,-439225,1636548401.6989655,1636548401.743216,28
1078,0,336969,185619,72199,147967,282886,198722,9227,-439207,1636548401.698966,1636548401.743216,28
1079,0,336987,185578,72203,147988,282909,198731,9242,-439189,1636548401.7012277,1636548401.743216,28
1080,0,336901,185458,72101,147876,282830,198632,9143,-439306,1636548401.7012377,1636548401.743216,28
1081,0,336935,185524,72117,147873,282852,198649,9162,-439284,1636548401.7054234,1636548401.743216,28
1082,0,337004,185625,72194,147991,282916,198708,9216,-439227,1636548401.7054293,1636548401.743216,28
1083,0,337014,185633,72206,148036,282925,198686,9198,-439259,1636548402,1636548401.743216,28
1084,0,336942,185554,72133,147926,282859,198616,9121,-439337,1636548401.709133,1636548401.743216,28
1085,0,336936,185530,72142,147926,282866,198633,9134,-439366,1636548401.7153287,1636548401.743216,28
1086,0,336939,185524,72141,147893,282810,198591,9129,-439359,1636548401.7153308,1636548401.743216,28
1087,0,336968,185533,72146,147884,282831,198614,9158,-439337,1636548401.7168872,1636548401.743216,28
1088,0,336892,185469,72122,147887,282809,198574,9110,-439407,1636548401.7168891,1636548401.743216,28
1089,0,336991,185539,72194,147972,282875,198631,9171,-439346,1636548401.720606,1636548401.743216,28
1090,0,336922,185470,72138,147876,282774,198563,9088,-439413,1636548401.7206085,1636548401.743216,28
1091,0,336969,185514,72209,147958,282853,198619,9130,-439365,1636548401.7246132,1636548401.743216,28
1092,0,336884,185435,72181,147950,282849,198567,9083,-439421,1636548401.7246153,1636548401.743216,28
1093,0,336844,185431,72186,147929,282782,198523,9066,-439427,1636548401.7313635,1636548401.743216,28
1094,0,336898,185487,72224,147953,282813,198531,9089,-439411,1636548401.7313664,1636548401.743216,28
1095,0,336910,185478,72245,148012,282865,198564,9121,-439391,1636548401.7325315,1636548401.743216,28
1096,0,336889,185439,72217,147994,282881,198557,9138,-439376,1636548401.7325327,1636548401.743216,28
1097,0,336897,185436,72273,148012,282885,198573,9151,-439356,1636548401.7371957,1636548401.743216,28
1098,0,337033,185487,72288,148065,282936,198632,9253,-439264,1636548401.7372034,1636548401.743216,28
1099,0,337058,185461,72259,148113,282982,198638,9284,-439235,1636548401.7592833,1636548401.743216,28
1100,0,336924,185327,72176,148060,282963,198611,9221,-439321,1636548401.759287,1636548401.743216,28
1101,0,336832,185283,72096,147960,282871,198510,9136,-439386,1636548401.7593083,1636548401.743216,28
1102,0,336876,185352,72165,148018,282903,198521,9152,-439365,1636548401.7593088,1636548401.743216,28
1103,0,336989,185540,72286,148004,282934,198551,9215,-439267,1636548401.7593124,1636548401.743216,28
1104,0,336907,185469,72323,148029,282883,198482,9138,-439341,1636548401.759313,1636548401.743216,28
1105,0,336850,185379,72312,148093,282897,198511,9137,-439376,1636548401.7593188,1636548401.743216,28
1106,0,336822,185319,72203,148054,282892,198486,9103,-439387,1636548401.7593296,1636548401.743216,28
1107,0,336843,185329,72249,148135,283014,198523,9140,-439347,1636548401.759336,1636548401.743216,28
1108,0,336795,185198,72148,148020,282891,198509,9158,-439357,1636548401.7593367,1636548401.743216,28
1109,0,336795,185151,72185,148107,282989,198588,9220,-439315,1636548401.7604792,1636548401.743216,28
1110,0,336691,185029,72048,147953,282878,198465,9089,-439415,1636548401.7604814,1636548401.743216,28
1111,0,336709,185074,72008,147863,282831,198426,9071,-439444,1636548401.7649448,1636548401.836951,29
1112,0,336723,185168,72083,147888,282789,198408,9056,-439449,1636548401.7649472,1636548401.836951,29
1113,0,336862,185363,72252,147996,282766,198400,9088,-439366,1636548401.7689035,1636548401.836951,29
1114,0,336925,185399,72243,147979,282741,198314,9036,-439385,1636548401.7689054,1636548401.836951,29
1115,0,336964,185415,72239,148020,282782,198334,9069,-439351,1636548401.7741046,1636548401.836951,29
1116,0,336885,185326,72138,147947,282711,198288,9016,-439405,1636548401.7741067,1636548401.836951,29
1117,0,336831,185263,72100,147956,282809,198336,9024,-439422,1636548402,1636548401.836951,29
1118,0,336850,185312,72183,147981,282789,198375,9064,-439377,1636548401.781953,1636548401.836951,29
1119,0,336943,185413,72233,147951,282738,198399,9112,-439277,1636548401.7820208,1636548401.836951,29
1120,0,336846,185278,72051,147832,282631,198316,9039,-439364,1636548401.7820225,1636548401.836951,29
1121,0,336854,185254,72046,147863,282623,198301,9049,-439341,1636548401.784572,1636548401.836951,29
1122,0,336892,185318,72141,147968,282748,198371,9098,-439320,1636548401.784574,1636548401.836951,29
1123,0,336824,185321,72253,148070,282869,198383,9067,-439381,1636548401.7902365,1636548401.836951,29
1124,0,336838,185384,72267,148158,282993,198411,9099,-439319,1636548401.7902403,1636548401.836951,29
1125,0,336768,185328,72138,148011,282872,198376,9066,-439366,1636548401.7952535,1636548401.836951,29
1126,0,336749,185323,72120,147978,282825,198365,9063,-439381,1636548401.795256,1636548401.836951,29
1127,0,336848,185383,72192,147978,282896,198419,9101,-439336,1636548401.8050213,1636548401.836951,29
1128,0,336832,185368,72194,147915,282887,198373,9071,-439373,1636548401.805024,1636548401.836951,29
1129,0,336901,185493,72286,147980,282959,198466,9157,-439262,1636548401.8050363,1636548401.836951,29
1130,0,336845,185408,72134,147878,282864,198376,9068,-439324,1636548401.8050368,1636548401.836951,29
1131,0,336914,185473,72239,148045,282876,198431,9089,-439273,1636548401.8050396,1636548401.836951,29
1132,0,336920,185511,72343,148234,282997,198469,9101,-439290,1636548402,1636548401.836951,29
1133,0,336903,185493,72315,148150,282933,198412,9058,-439333,1636548401.8086116,1636548401.836951,29
1134,0,336946,185518,72305,148081,282918,198429,9086,-439267,1636548401.808614,1636548401.836951,29
1135,0,336897,185446,72253,148003,282853,198386,9056,-439326,1636548401.8159533,1636548401.836951,29
1136,0,336884,185435,72252,147999,282841,198369,9053,-439360,1636548401.8159552,1636548401.836951,29
1137,0,336959,185516,72326,148081,282912,198444,9107,-439297,1636548401.816815,1636548401.836951,29
1138,0,336962,185528,72346,148088,282939,198470,9126,-439266,1636548401.816817,1636548401.836951,29
1139,0,336911,185494,72334,148076,282946,198473,9116,-439271,1636548401.820494,1636548401.836951,29
1140,0,336804,185368,72184,147947,282862,198366,9021,-439365,1636548401.820496,1636548401.836951,29
1141,0,336768,185337,72151,147913,282790,198151,8959,-439412,1636548401.8373296,1636548401.836951,29
1142,0,336827,185384,72230,147987,282835,198176,9007,-439369,1636548401.8373327,1636548401.836951,29
1143,0,336899,185428,72311,148065,282914,198346,9091,-439287,1636548401.837344,1636548401.836951,29
1144,0,336843,185333,72222,147980,282858,198353,9018,-439348,1636548401.8373444,1636548401.836951,29
1145,0,336840,185305,72185,147941,282826,198417,9006,-439337,1636548401.8373473,1636548401.836951,29
1146,0,336852,185328,72224,147984,282893,198576,9069,-439326,1636548401.8373475,1636548401.836951,29
1147,0,336809,185266,72182,147940,282856,198484,9018,-439376,1636548402,1636548401.836951,29
1148,0,336888,185329,72246,147994,282928,198499,9086,-439297,1636548401.8373504,1636548401.836951,29
1149,0,336904,185340,72278,148011,282938,198489,9091,-439289,1636548401.8404365,1636548401.836951,29
1150,0,336793,185216,72191,147898,282814,198368,8982,-439408,1636548401.840439,1636548401.836951,29
1151,0,336834,185216,72254,147919,282821,198398,9019,-439376,1636548401.8444664,1636548401.836951,29
1152,0,336913,185275,72344,148001,282915,198466,9093,-439310,1636548401.8444717,1636548401.836951,29
1153,0,336868,185172,72313,147962,282910,198466,9049,-439338,1636548401.8486097,1636548401.906018,30
1154,0,336803,185131,72262,147904,282836,198403,9013,-439397,1636548401.8530052,1636548401.906018,30
1155,0,336848,185199,72305,147961,282871,198439,9074,-439346,1636548401.8530085,1636548401.906018,30
1156,0,336829,185181,72271,147931,282836,198414,9047,-439374,1636548401.8568192,1636548401.906018,30
1157,0,336908,185268,72336,148002,282911,198452,9101,-439302,1636548401.8568213,1636548401.906018,30
1158,0,336958,185329,72377,148041,282941,198366,9082,-439255,1636548401.8605485,1636548401.906018,30
1159,0,336908,185276,72359,147994,282901,198287,9003,-439299,1636548401.8605523,1636548401.906018,30
1160,0,336823,185179,72303,147928,282843,198311,8939,-439387,1636548401.8645608,1636548401.906018,30
1161,0,336832,185179,72293,147876,282771,198341,8941,-439394,1636548401.8645723,1636548401.906018,30
1162,0,336809,185151,72269,147843,282798,198449,9011,-439396,1636548401.8688405,1636548401.906018,30
1163,0,336846,185183,72326,147934,282906,198649,9202,-439313,1636548401.8688424,1636548401.906018,30
1164,0,336868,185209,72321,147938,282896,198601,9198,-439318,1636548401.8727624,1636548401.906018,30
1165,0,336803,185148,72219,147828,282791,198471,9108,-439414,1636548401.8727648,1636548401.906018,30
1166,0,336892,185211,72264,147838,282804,198466,9141,-439343,1636548401.8829515,1636548401.906018,30
1167,0,337004,185318,72324,147919,282838,198543,9168,-439285,1636548401.8829532,1636548401.906018,30
1168,0,336997,185314,72333,148002,282898,198589,9173,-439262,1636548401.8829637,1636548401.906018,30
1169,0,336859,185182,72194,147835,282781,198331,9034,-439386,1636548401.882964,1636548401.906018,30
1170,0,336907,185239,72249,147874,282878,198199,9103,-439334,1636548401.8847098,1636548401.906018,30
1171,0,336886,185234,72229,147831,282744,198123,9084,-439342,1636548401.8847127,1636548401.906018,30
1172,0,336841,185158,72185,147826,282779,198466,9059,-439379,1636548401.8986044,1636548401.906018,30
1173,0,336835,185105,72120,147780,282821,198493,9108,-439368,1636548401.8986068,1636548401.906018,30
1174,0,336834,185103,72119,147764,282791,198394,9066,-439414,1636548401.9017727,1636548401.906018,30
1175,0,336910,185206,72200,147812,282833,198436,9119,-439330,1636548401.901774,1636548401.906018,30
1176,0,336899,185211,72185,147775,282790,198427,9074,-439334,1636548401.9017816,1636548401.906018,30
1177,0,336906,185212,72143,147714,282693,198388,9061,-439359,1636548401.9017823,1636548401.906018,30
1178,0,336855,185168,72118,147738,282775,198386,9069,-439375,1636548401.901785,1636548401.906018,30
1179,0,336692,185034,71989,147684,282744,198244,8923,-439524,1636548401.9017851,1636548401.906018,30
1180,0,336711,185066,72029,147784,282821,198268,8932,-439496,1636548401.9043033,1636548401.906018,30
1181,0,336818,185182,72123,147827,282866,198368,9029,-439398,1636548401.9043045,1636548401.906018,30
1182,0,336836,185204,72136,147790,282841,198366,9039,-439398,1636548401.9085047,1636548401.906018,30
1183,0,336834,185223,72098,147788,282884,198366,9040,-439425,1636548401.9085088,1636548401.906018,30
1184,0,336907,185346,72154,147804,282938,198228,9051,-439364,1636548401.920498,1636548401.975416,31
1185,0,336863,185283,72051,147719,282848,198200,8992,-439453,1636548401.9205017,1636548401.975416,31
1186,0,336823,185252,71960,147682,282835,198241,8978,-439497,1636548401.9320257,1636548401.975416,31
1187,0,336756,185237,71894,147671,282806,198174,8919,-439569,1636548401.932028,1636548401.975416,31
1188,0,336753,185231,71833,147703,282809,198169,8928,-439561,1636548401.932075,1636548401.975416,31
1189,0,336782,185233,71833,147656,282784,198204,8923,-439567,1636548401.9320755,1636548401.975416,31
1190,0,336820,185252,71890,147659,282793,198203,8927,-439562,1636548401.9322395,1636548401.975416,31
1191,0,336858,185257,71921,147714,282868,198228,8971,-439526,1636548401.9322407,1636548401.975416,31
1192,0,336952,185339,71984,147793,282959,198327,9051,-439425,1636548401.9368005,1636548401.975416,31
1193,0,336953,185373,71996,147803,282974,198359,9067,-439406,1636548401.9368029,1636548401.975416,31
1194,0,336953,185401,72001,147796,283002,198373,9063,-439377,1636548401.9406755,1636548401.975416,31
1195,0,336852,185324,71888,147683,282913,198277,8970,-439472,1636548401.9406793,1636548401.975416,31
1196,0,336818,185291,71833,147631,282860,198226,8908,-439516,1636548401.9443512,1636548401.975416,31
1197,0,336876,185346,71866,147685,282908,198289,8942,-439454,1636548401.9443538,1636548401.975416,31
1198,0,336890,185364,71863,147694,282919,198294,8944,-439444,1636548401.9482243,1636548401.975416,31
1199,0,336851,185352,71844,147669,282888,198268,8909,-439467,1636548401.9482267,1636548401.975416,31
1200,0,336819,185307,71791,147636,282853,198236,8886,-439498,1636548401.953189,1636548401.975416,31
1201,0,336764,185246,71739,147574,282799,198187,8835,-439551,1636548401.9531906,1636548401.975416,31
1202,0,336806,185293,71776,147606,282847,198239,8876,-439504,1636548401.956668,1636548401.975416,31
1203,0,336780,185274,71740,147563,282813,198209,8854,-439527,1636548402,1636548401.975416,31
1204,0,336854,185379,71799,147604,282853,198291,8938,-439435,1636548401.9605613,1636548401.975416,31
